space:E: Abs(E)^2 vs x, y=0(m), z=0(m), lambda=6.52921e-07(m) 

x(nm), Abs(E)^2
-3000, 0.999497
-2977.78, 0.999199
-2955.57, 0.999016
-2933.35, 0.998983
-2911.13, 0.999104
-2888.92, 0.999359
-2866.7, 0.9997
-2844.48, 1.00007
-2822.27, 1.00039
-2800.05, 1.00062
-2777.83, 1.0007
-2755.62, 1.00063
-2733.4, 1.00042
-2711.18, 1.0001
-2688.97, 0.999731
-2666.75, 0.999385
-2644.53, 0.999121
-2622.32, 0.998986
-2600.1, 0.999006
-2577.88, 0.999177
-2555.67, 0.999466
-2533.45, 0.999824
-2511.23, 1.00018
-2489.02, 1.00048
-2466.8, 1.00067
-2444.58, 1.0007
-2422.37, 1.00058
-2400.15, 1.00032
-2377.93, 0.999981
-2355.72, 0.999615
-2333.5, 0.99929
-2311.29, 0.999065
-2289.07, 0.99898
-2266.85, 0.999052
-2244.64, 0.999266
-2222.42, 0.999585
-2200.2, 0.99995
-2177.99, 1.0003
-2155.77, 1.00056
-2133.55, 1.00069
-2111.34, 1.00067
-2089.12, 1.0005
-2066.9, 1.00021
-2044.69, 0.999855
-2022.47, 0.999496
-2000.25, 0.999198
-1978.04, 0.999017
-1955.82, 0.998984
-1933.6, 0.999105
-1911.39, 0.99936
-1889.17, 0.999701
-1866.95, 1.00007
-1844.74, 1.00039
-1822.52, 1.00062
-1800.3, 1.0007
-1778.09, 1.00063
-1755.87, 1.00042
-1733.65, 1.0001
-1711.44, 0.999733
-1689.22, 0.999387
-1667, 0.999123
-1644.79, 0.998988
-1622.57, 0.999008
-1600.35, 0.999177
-1578.14, 0.999467
-1555.92, 0.999823
-1533.7, 1.00018
-1511.49, 1.00048
-1489.27, 1.00066
-1467.05, 1.00069
-1444.84, 1.00057
-1422.62, 1.00032
-1400.4, 0.999976
-1378.19, 0.99961
-1355.97, 0.999285
-1333.75, 0.99906
-1311.54, 0.998976
-1289.32, 0.999047
-1267.1, 0.999262
-1244.89, 0.99958
-1222.67, 0.999946
-1200.45, 1.00029
-1178.24, 1.00056
-1156.02, 1.00069
-1133.8, 1.00067
-1111.59, 1.0005
-1089.37, 1.00021
-1067.15, 0.999856
-1044.94, 0.999496
-1022.72, 0.999198
-1000.51, 0.999016
-978.288, 0.998983
-956.072, 0.999105
-933.855, 0.999359
-911.639, 0.999701
-889.422, 1.00007
-867.205, 1.00039
-844.989, 1.00062
-822.772, 1.0007
-800.556, 1.00063
-778.339, 1.00041
-756.122, 1.00009
-733.906, 0.999729
-711.689, 0.999383
-689.472, 0.999119
-667.256, 0.998984
-645.039, 0.999004
-622.823, 0.999175
-600.606, 0.999465
-578.389, 0.999823
-556.173, 1.00018
-533.956, 1.00048
-511.74, 1.00066
-489.523, 1.0007
-467.306, 1.00057
-445.09, 1.00032
-422.873, 0.999977
-400.657, 0.99961
-378.44, 0.999284
-356.223, 0.999059
-334.007, 0.998975
-311.79, 0.999047
-289.573, 0.999262
-267.357, 0.999581
-245.14, 0.999947
-222.924, 1.00029
-200.707, 1.00056
-178.49, 1.00069
-156.274, 1.00067
-134.057, 1.0005
-111.841, 1.00021
-89.6239, 0.999851
-67.4073, 0.999491
-51.558, 0.999139
-39.8603, 0.998718
-28.5534, 0.998163
-20.4871, 0.997682
-14.7326, 0.997295
-10.6273, 0.996998
-7.69861, 0.996775
-5.60928, 0.996611
-4.11876, 0.996492
-3.05542, 0.996405
-2.29683, 0.996343
-1.75566, 0.996298
-1.36959, 0.996266
-1.09416, 0.996243
-0.897674, 0.996227
-0.7575, 0.996216
-0.6575, 0.996207
-0.5575, 0.996199
-0.4575, 0.996191
-0.3575, 0.996181
-0.2575, 0.996173
-0.1575, 0.996165
-0.0575, 0.996156
0.0425, 0.996148
0.1425, 0.99614
0.282676, 0.996128
0.479169, 0.996111
0.754604, 0.996088
1.1407, 0.996055
1.68191, 0.996009
2.44056, 0.995944
3.50399, 0.995852
4.99468, 0.995723
7.08426, 0.995539
10.0133, 0.995277
14.1192, 0.994905
19.8747, 0.994379
27.9424, 0.99365
39.2515, 0.992697
50.9543, 0.991858
66.8068, 0.991098
89.0282, 0.99122
111.25, 0.992907
133.471, 0.995856
155.693, 0.999532
177.914, 1.00327
200.135, 1.0064
222.357, 1.00835
244.578, 1.00876
266.8, 1.00757
289.021, 1.005
311.243, 1.00149
333.464, 0.997695
355.685, 0.994295
377.907, 0.991905
400.128, 0.990957
422.35, 0.991622
444.571, 0.993781
466.793, 0.997043
489.014, 1.00082
511.235, 1.00442
533.457, 1.00721
555.678, 1.00866
577.9, 1.00853
600.121, 1.00684
622.343, 1.00389
644.564, 1.00021
666.785, 0.99647
689.007, 0.993349
711.228, 0.991409
733.45, 0.991001
755.671, 0.992198
777.893, 0.994784
800.114, 0.998292
822.335, 1.00209
844.557, 1.00548
866.778, 1.00787
889, 1.00881
911.221, 1.00813
933.443, 1.00597
955.664, 1.0027
977.885, 0.998924
1000.11, 0.995321
1022.33, 0.992543
1044.55, 0.991093
1066.77, 0.991231
1088.99, 0.992933
1111.21, 0.995892
1133.44, 0.999571
1155.66, 1.00331
1177.88, 1.00642
1200.1, 1.00836
1222.32, 1.00876
1244.54, 1.00755
1266.76, 1.00496
1288.99, 1.00145
1311.21, 0.997655
1333.43, 0.994263
1355.65, 0.991887
1377.87, 0.990956
1400.09, 0.991639
1422.31, 0.993812
1444.54, 0.997083
1466.76, 1.00086
1488.98, 1.00446
1511.2, 1.00723
1533.42, 1.00867
1555.64, 1.00853
1577.86, 1.00682
1600.09, 1.00385
1622.31, 1.00017
1644.53, 0.996437
1666.75, 0.993325
1688.97, 0.991399
1711.19, 0.991006
1733.41, 0.992219
1755.64, 0.994817
1777.86, 0.998331
1800.08, 1.00212
1822.3, 1.00551
1844.52, 1.00788
1866.74, 1.0088
1888.96, 1.00811
1911.19, 1.00593
1933.41, 1.00266
1955.63, 0.998882
1977.85, 0.995285
2000.07, 0.99252
2022.29, 0.991084
2044.51, 0.99124
2066.74, 0.992958
2088.96, 0.995928
2111.18, 0.999613
2133.4, 1.00335
2155.62, 1.00645
2177.84, 1.00837
2200.06, 1.00875
2222.29, 1.00753
2244.51, 1.00493
2266.73, 1.00141
2288.95, 0.997618
2311.17, 0.994233
2333.39, 0.99187
2355.61, 0.990955
2377.84, 0.991654
2400.06, 0.993841
2422.28, 0.99712
2444.5, 1.0009
2466.72, 1.00449
2488.94, 1.00725
2511.16, 1.00868
2533.39, 1.00851
2555.61, 1.00679
2577.83, 1.00381
2600.05, 1.00013
2622.27, 0.996396
2644.49, 0.993295
2666.71, 0.991384
2688.94, 0.99101
2711.16, 0.99224
2733.38, 0.99485
2755.6, 0.998371
2777.82, 1.00216
2800.04, 1.00555
2822.26, 1.0079
2844.49, 1.00881
2866.71, 1.0081
2888.93, 1.00591


