space:E: Re(Ey) vs x, y=0(m), z=0(m), lambda=6.52921e-07(m) 

x(nm), Re(Ey)
-3000, 0.267414
-2977.78, 0.4661
-2955.57, 0.643482
-2933.35, 0.791451
-2911.13, 0.903245
-2888.92, 0.973753
-2866.7, 0.999752
-2844.48, 0.980055
-2822.27, 0.915561
-2800.05, 0.809218
-2777.83, 0.665888
-2755.62, 0.492121
-2733.4, 0.29586
-2711.18, 0.0860758
-2688.97, -0.127643
-2666.75, -0.335527
-2644.53, -0.528075
-2622.32, -0.696486
-2600.1, -0.833061
-2577.88, -0.931559
-2555.67, -0.987477
-2533.45, -0.998259
-2511.23, -0.963413
-2489.02, -0.884531
-2466.8, -0.765218
-2444.58, -0.610928
-2422.37, -0.428714
-2400.15, -0.226904
-2377.93, -0.0147232
-2355.72, 0.198131
-2333.5, 0.401929
-2311.29, 0.587356
-2289.07, 0.745936
-2266.85, 0.87042
-2244.64, 0.955119
-2222.42, 0.996161
-2200.2, 0.991671
-2177.99, 0.941852
-2155.77, 0.848984
-2133.55, 0.71731
-2111.34, 0.552848
-2089.12, 0.363117
-2066.9, 0.156789
-2044.69, -0.0567062
-2022.47, -0.267609
-2000.25, -0.46628
-1978.04, -0.643638
-1955.82, -0.791576
-1933.6, -0.903332
-1911.39, -0.973799
-1889.17, -0.999755
-1866.95, -0.980015
-1844.74, -0.915479
-1822.52, -0.809099
-1800.3, -0.665736
-1778.09, -0.491944
-1755.87, -0.295666
-1733.65, -0.0858738
-1711.44, 0.127844
-1689.22, 0.335718
-1667, 0.528247
-1644.79, 0.696631
-1622.57, 0.833173
-1600.35, 0.931632
-1578.14, 0.987508
-1555.92, 0.998248
-1533.7, 0.963358
-1511.49, 0.884436
-1489.27, 0.765088
-1467.05, 0.610769
-1444.84, 0.428532
-1422.62, 0.226708
-1400.4, 0.0145221
-1378.19, -0.198328
-1355.97, -0.402113
-1333.75, -0.587518
-1311.54, -0.746068
-1289.32, -0.870517
-1267.1, -0.955176
-1244.89, -0.996176
-1222.67, -0.991642
-1200.45, -0.941783
-1178.24, -0.848876
-1156.02, -0.717168
-1133.8, -0.55268
-1111.59, -0.36293
-1089.37, -0.156591
-1067.15, 0.0569052
-1044.94, 0.267801
-1022.72, 0.466455
-1000.51, 0.643789
-978.288, 0.791697
-956.072, 0.903417
-933.855, 0.973844
-911.639, 0.999758
-889.422, 0.979975
-867.205, 0.9154
-844.989, 0.808982
-822.772, 0.665589
-800.556, 0.491771
-778.339, 0.295477
-756.122, 0.0856759
-733.906, -0.128041
-711.689, -0.335905
-689.472, -0.528416
-667.256, -0.696773
-645.039, -0.833283
-622.823, -0.931704
-600.606, -0.987539
-578.389, -0.998236
-556.173, -0.963304
-533.956, -0.884342
-511.74, -0.764959
-489.523, -0.61061
-467.306, -0.428351
-445.09, -0.226514
-422.873, -0.0143224
-400.657, 0.198524
-378.44, 0.402295
-356.223, 0.587679
-334.007, 0.746201
-311.79, 0.870615
-289.573, 0.955235
-267.357, 0.996193
-245.14, 0.991617
-222.924, 0.941716
-200.707, 0.848771
-178.49, 0.71703
-156.274, 0.552514
-134.057, 0.362745
-111.841, 0.156395
-89.6239, -0.0571038
-67.4073, -0.267992
-51.558, -0.410953
-39.8603, -0.510336
-28.5534, -0.600251
-20.4871, -0.660053
-14.7326, -0.700285
-10.6273, -0.727674
-7.69861, -0.746519
-5.60928, -0.759601
-4.11876, -0.768746
-3.05542, -0.775173
-2.29683, -0.779709
-1.75566, -0.782919
-1.36959, -0.785196
-1.09416, -0.786815
-0.897674, -0.787965
-0.7575, -0.788785
-0.6575, -0.789368
-0.5575, -0.789951
-0.4575, -0.790533
-0.3575, -0.791115
-0.2575, -0.791695
-0.1575, -0.792275
-0.0575, -0.792855
0.0425, -0.793433
0.1425, -0.794011
0.282676, -0.794819
0.479169, -0.79595
0.754604, -0.797531
1.1407, -0.799738
1.68191, -0.802812
2.44056, -0.807084
3.50399, -0.813001
4.99468, -0.821152
7.08426, -0.832292
10.0133, -0.847342
14.1192, -0.867305
19.8747, -0.893009
27.9424, -0.924429
39.2515, -0.959092
50.9543, -0.983003
66.8068, -0.99551
89.0282, -0.974043
111.25, -0.908034
133.471, -0.800503
155.693, -0.656366
177.914, -0.482216
200.135, -0.286014
222.357, -0.0767332
244.578, 0.136056
266.8, 0.342624
289.021, 0.533524
311.243, 0.700027
333.464, 0.83452
355.685, 0.930851
377.907, 0.984616
400.128, 0.993357
422.35, 0.956674
444.571, 0.876244
466.793, 0.755745
489.014, 0.600687
511.235, 0.418161
533.457, 0.216514
555.678, 0.00496509
577.9, -0.20681
600.121, -0.409129
622.343, -0.592739
644.564, -0.749244
666.785, -0.871487
689.007, -0.953879
711.228, -0.992652
733.45, -0.986034
755.671, -0.934325
777.893, -0.839892
800.114, -0.707052
822.335, -0.54188
844.557, -0.351929
866.778, -0.145885
889, 0.06683
911.221, 0.276489
933.443, 0.473505
955.664, 0.648869
977.885, 0.794561
1000.11, 0.903919
1022.33, 0.971943
1044.55, 0.995522
1066.77, 0.973577
1088.99, 0.907113
1111.21, 0.799169
1133.44, 0.654679
1155.66, 0.480253
1177.88, 0.283866
1200.1, 0.0744982
1222.32, -0.138276
1244.54, -0.344728
1266.76, -0.535415
1288.99, -0.701619
1311.21, -0.83574
1333.43, -0.931644
1355.65, -0.984945
1377.87, -0.993207
1400.09, -0.956052
1422.31, -0.875178
1444.54, -0.754284
1466.76, -0.598898
1488.98, -0.416125
1511.2, -0.214324
1533.42, -0.00272261
1555.64, 0.209004
1577.86, 0.411173
1600.09, 0.594539
1622.31, 0.750719
1644.53, 0.87257
1666.75, 0.954519
1688.97, 0.992821
1711.19, 0.985723
1733.41, 0.93355
1755.64, 0.838687
1777.86, 0.705473
1800.08, 0.539999
1822.3, 0.349831
1844.52, 0.143667
1866.74, -0.0690668
1888.96, -0.278642
1911.19, -0.475476
1933.41, -0.650567
1955.63, -0.795909
1977.85, -0.904856
2000.07, -0.972425
2022.29, -0.995527
2044.51, -0.973106
2066.74, -0.906187
2088.96, -0.797829
2111.18, -0.652988
2133.4, -0.478288
2155.62, -0.281716
2177.84, -0.0722619
2200.06, 0.140497
2222.29, 0.34683
2244.51, 0.537305
2266.73, 0.703209
2288.95, 0.836957
2311.17, 0.932432
2333.39, 0.985269
2355.61, 0.993052
2377.84, 0.955424
2400.06, 0.874107
2422.28, 0.752819
2444.5, 0.597105
2466.72, 0.414088
2488.94, 0.212135
2511.16, 0.000481048
2533.39, -0.211195
2555.61, -0.413213
2577.83, -0.596335
2600.05, -0.752189
2622.27, -0.873646
2644.49, -0.955153
2666.71, -0.992983
2688.94, -0.985406
2711.16, -0.932768
2733.38, -0.837476
2755.6, -0.703889
2777.82, -0.538114
2800.04, -0.347732
2822.26, -0.141449
2844.49, 0.0713026
2866.71, 0.280793
2888.93, 0.477444


