space:E: Re(Ey) vs x, y=0(m), z=0(m), lambda=5.63798e-07(m) 

x(nm), Re(Ey)
-3000, -0.728093
-2977.82, -0.859526
-2955.64, -0.938439
-2933.46, -0.96001
-2911.28, -0.92292
-2889.1, -0.829437
-2866.92, -0.685273
-2844.74, -0.499237
-2822.56, -0.282697
-2800.38, -0.0488827
-2778.2, 0.187918
-2756.01, 0.413236
-2733.83, 0.613304
-2711.65, 0.775898
-2689.47, 0.891082
-2667.29, 0.95182
-2645.11, 0.9544
-2622.93, 0.898664
-2600.75, 0.788019
-2578.57, 0.629226
-2556.39, 0.431987
-2534.21, 0.208354
-2512.03, -0.0280079
-2489.85, -0.262658
-2467.67, -0.481257
-2445.49, -0.67045
-2423.31, -0.818676
-2401.13, -0.916878
-2378.95, -0.959057
-2356.77, -0.942636
-2334.59, -0.868618
-2312.41, -0.741526
-2290.23, -0.569125
-2268.04, -0.36195
-2245.86, -0.132658
-2223.68, 0.104739
-2201.5, 0.335736
-2179.32, 0.54622
-2157.14, 0.72333
-2134.96, 0.856242
-2112.78, 0.936838
-2090.6, 0.960191
-2068.42, 0.924875
-2046.24, 0.833048
-2024.06, 0.690321
-2001.88, 0.505414
-1979.7, 0.289625
-1957.52, 0.0561404
-1935.34, -0.180774
-1913.16, -0.406643
-1890.98, -0.607665
-1868.8, -0.771558
-1846.62, -0.888307
-1824.44, -0.950779
-1802.26, -0.955157
-1780.07, -0.901173
-1757.89, -0.792126
-1735.71, -0.634678
-1713.53, -0.438451
-1691.35, -0.215433
-1669.17, 0.0207479
-1646.99, 0.255661
-1624.81, 0.474953
-1602.63, 0.665224
-1580.45, 0.814848
-1558.27, 0.914684
-1536.09, 0.958631
-1513.91, 0.944004
-1491.73, 0.871696
-1469.55, 0.746125
-1447.37, 0.574965
-1425.19, 0.368674
-1403.01, 0.139855
-1380.83, -0.0975091
-1358.65, -0.328916
-1336.47, -0.540226
-1314.29, -0.718527
-1292.1, -0.852926
-1269.92, -0.93521
-1247.74, -0.960352
-1225.56, -0.926814
-1203.38, -0.836648
-1181.2, -0.695361
-1159.02, -0.511587
-1136.84, -0.296554
-1114.66, -0.0634022
-1092.48, 0.173623
-1070.3, 0.400039
-1048.12, 0.602012
-1025.94, 0.7672
-1003.76, 0.88551
-981.578, 0.949714
-959.398, 0.955887
-937.217, 0.903654
-915.037, 0.796205
-892.856, 0.640107
-870.676, 0.444895
-848.496, 0.2225
-826.315, -0.0134919
-804.135, -0.24866
-781.954, -0.468635
-759.774, -0.659976
-737.593, -0.810993
-715.413, -0.912457
-693.232, -0.95817
-671.052, -0.945337
-648.871, -0.874744
-626.691, -0.750703
-604.511, -0.580793
-582.33, -0.375397
-560.15, -0.147064
-537.969, 0.0902537
-515.789, 0.322056
-493.608, 0.53418
-471.428, 0.713663
-449.247, 0.849539
-427.067, 0.933506
-404.886, 0.960434
-382.706, 0.928677
-360.525, 0.840175
-338.345, 0.700336
-316.165, 0.517705
-293.984, 0.30344
-271.804, 0.0706335
-249.623, -0.166489
-227.443, -0.393441
-205.262, -0.596353
-183.082, -0.762827
-160.901, -0.882693
-138.721, -0.948625
-116.54, -0.956595
-100, -0.924494
-83.4596, -0.877915
-66.9192, -0.817587
-50.3788, -0.744455
-38.6124, -0.685334
-29.4113, -0.635318
-21.041, -0.587144
-15.0866, -0.551441
-10.8508, -0.525361
-7.83763, -0.506481
-5.69411, -0.492889
-4.16926, -0.483142
-3.08453, -0.476169
-2.31289, -0.471189
-1.76396, -0.467637
-1.37347, -0.465104
-1.09568, -0.463301
-0.898073, -0.462016
-0.7575, -0.461102
-0.6575, -0.460452
-0.5575, -0.459801
-0.4575, -0.459149
-0.3575, -0.458498
-0.2575, -0.457846
-0.1575, -0.457194
-0.0575, -0.456542
0.0425, -0.455889
0.1425, -0.455236
0.282676, -0.45432
0.479169, -0.453033
0.754604, -0.451226
1.1407, -0.448686
1.68191, -0.445111
2.44056, -0.440073
3.50399, -0.432958
4.99468, -0.422882
7.08426, -0.408561
10.0133, -0.388114
14.1192, -0.358756
19.8747, -0.316339
27.9424, -0.254689
39.2515, -0.164806
50.9543, -0.0690371
66.8068, 0.0625628
89.0282, 0.243746
111.25, 0.40998
133.471, 0.55107
155.693, 0.658363
177.914, 0.725279
200.135, 0.747714
222.357, 0.724293
244.578, 0.656451
266.8, 0.54835
289.021, 0.406619
311.243, 0.23995
333.464, 0.0585636
355.685, -0.126415
377.907, -0.303642
400.128, -0.462248
422.35, -0.592507
444.571, -0.686429
466.793, -0.738256
489.014, -0.744808
511.235, -0.705684
533.457, -0.623283
555.678, -0.502658
577.9, -0.351208
600.121, -0.17822
622.343, 0.00569722
644.564, 0.189264
666.785, 0.361222
689.007, 0.511027
711.228, 0.62949
733.45, 0.709348
755.671, 0.745702
777.893, 0.736323
800.114, 0.681786
822.335, 0.585436
844.557, 0.453181
866.778, 0.293134
889, 0.115108
911.221, -0.069978
933.443, -0.250773
955.664, -0.41619
977.885, -0.556083
1000.11, -0.661874
1022.33, -0.727074
1044.55, -0.747685
1066.77, -0.722443
1088.99, -0.652896
1111.21, -0.543309
1133.44, -0.400403
1155.66, -0.232942
1177.88, -0.0511949
1200.1, 0.133691
1222.32, 0.310377
1244.54, 0.468028
1266.76, 0.596976
1288.99, 0.689312
1311.21, 0.739373
1333.43, 0.74409
1355.65, 0.703174
1377.87, 0.619133
1400.09, 0.497122
1422.31, 0.344623
1444.54, 0.170988
1466.76, -0.0131327
1488.98, -0.196448
1511.2, -0.367717
1533.42, -0.516434
1555.64, -0.63348
1577.86, -0.711676
1600.09, -0.746226
1622.31, -0.735013
1644.53, -0.678723
1666.75, -0.580808
1688.97, -0.447274
1711.19, -0.28631
1733.41, -0.107787
1755.64, 0.077347
1777.86, 0.257737
1800.08, 0.422321
1822.3, 0.561005
1844.52, 0.665284
1866.74, 0.728764
1888.96, 0.74755
1911.19, 0.720491
1933.41, 0.649246
1955.63, 0.538185
1977.85, 0.394118
2000.07, 0.225882
2022.29, 0.0437929
2044.51, -0.140982
2066.74, -0.31711
2088.96, -0.47379
2111.18, -0.601413
2133.4, -0.692153
2155.62, -0.740445
2177.84, -0.743326
2200.06, -0.70062
2222.29, -0.614947
2244.51, -0.49156
2266.73, -0.338026
2288.95, -0.163761
2311.17, 0.0205476
2333.39, 0.203597
2355.61, 0.374161
2377.84, 0.52178
2400.06, 0.6374
2422.28, 0.713931
2444.5, 0.746679
2466.72, 0.733636
2488.94, 0.675602
2511.16, 0.576136
2533.39, 0.441337
2555.61, 0.279473
2577.83, 0.10047
2600.05, -0.0846936
2622.27, -0.264663
2644.49, -0.4284
2666.71, -0.565864
2688.94, -0.668624
2711.16, -0.730379
2733.38, -0.747341
2755.6, -0.718469
2777.82, -0.645535
2800.04, -0.533012
2822.26, -0.387799
2844.49, -0.218803
2866.71, -0.0363875
2888.93, 0.14826


