  # energy grid [eV]     epsi_x  epsi_y  epsi_z
       0.000000            NaN            NaN            NaN
       0.010000       1.164365       0.460333       2.644617
       0.020000       2.325582       0.921495       3.462870
       0.030000       3.480874       1.384406       3.291572
       0.040000       4.628579       1.850260       2.873925
       0.050000       5.769283       2.320808       2.460449
       0.060000       6.906778       2.798524       2.106689
       0.070000       8.047954       3.286372       1.815015
       0.080000       9.200827       3.786902       1.576260
       0.090000      10.370629       4.300631       1.380505
       0.100000      11.554662       4.823940       1.219422
       0.110000      12.737162       5.346966       1.086447
       0.120000      13.885701       5.852093       0.976450
       0.130000      14.950838       6.313885       0.885373
       0.140000      15.870632       6.701240       0.809937
       0.150000      16.580764       6.982186       0.747421
       0.160000      17.028779       7.130652       0.695519
       0.170000      17.188186       7.133166       0.652265
       0.180000      17.066738       6.992771       0.616013
       0.190000      16.705141       6.728365       0.585444
       0.200000      16.166947       6.369809       0.559578
       0.210000      15.524332       5.951076       0.537753
       0.220000      14.845214       5.504068       0.519551
       0.230000      14.185043       5.054682       0.504691
       0.240000      13.583686       4.621357       0.492898
       0.250000      13.066068       4.215412       0.483793
       0.260000      12.644829       3.842352       0.476809
       0.270000      12.323667       3.503469       0.471180
       0.280000      12.100630       3.197365       0.465995
       0.290000      11.971023       2.921212       0.460324
       0.300000      11.929807       2.671698       0.453379
       0.310000      11.973429       2.445635       0.444642
       0.320000      12.101086       2.240280       0.433920
       0.330000      12.315391       2.053433       0.421288
       0.340000      12.622403       1.883400       0.406978
       0.350000      13.031030       1.728871       0.391271
       0.360000      13.551928       1.588780       0.374426
       0.370000      14.196089       1.462184       0.356669
       0.380000      14.973266       1.348170       0.338210
       0.390000      15.890231       1.245824       0.319273
       0.400000      16.948741       1.154220       0.300121
       0.410000      18.143117       1.072440       0.281065
       0.420000      19.457530       0.999589       0.262440
       0.430000      20.863455       0.934808       0.244576
       0.440000      22.318162       0.877282       0.227751
       0.450000      23.765313       0.826231       0.212163
       0.460000      25.138408       0.780898       0.197921
       0.470000      26.366939       0.740536       0.185041
       0.480000      27.384111       0.704395       0.173471
       0.490000      28.134740       0.671724       0.163102
       0.500000      28.582500       0.641799       0.153796
       0.510000      28.715979       0.613965       0.145407
       0.520000      28.552102       0.587695       0.137802
       0.530000      28.134482       0.562631       0.130880
       0.540000      27.525080       0.538589       0.124573
       0.550000      26.790568       0.515517       0.118852
       0.560000      25.987611       0.493432       0.113711
       0.570000      25.151837       0.472353       0.109160
       0.580000      24.293670       0.452263       0.105213
       0.590000      23.401796       0.433109       0.101884
       0.600000      22.452882       0.414823       0.099184
       0.610000      21.424310       0.397353       0.097117
       0.620000      20.305521       0.380687       0.095688
       0.630000      19.103943       0.364854       0.094897
       0.640000      17.843892       0.349907       0.094741
       0.650000      16.560089       0.335901       0.095211
       0.660000      15.289388       0.322878       0.096288
       0.670000      14.064027       0.310853       0.097936
       0.680000      12.907954       0.299819       0.100097
       0.690000      11.836053       0.289745       0.102680
       0.700000      10.855261       0.280590       0.105561
       0.710000       9.966468       0.272301       0.108585
       0.720000       9.166486       0.264823       0.111576
       0.730000       8.449696       0.258102       0.114348
       0.740000       7.809269       0.252087       0.116723
       0.750000       7.237996       0.246729       0.118539
       0.760000       6.728811       0.241985       0.119657
       0.770000       6.275084       0.237817       0.119977
       0.780000       5.870769       0.234191       0.119452
       0.790000       5.510457       0.231079       0.118114
       0.800000       5.189370       0.228457       0.116077
       0.810000       4.903325       0.226303       0.113523
       0.820000       4.648681       0.224602       0.110660
       0.830000       4.422279       0.223341       0.107677
       0.840000       4.221376       0.222510       0.104710
       0.850000       4.043587       0.222105       0.101820
       0.860000       3.886821       0.222123       0.099006
       0.870000       3.749229       0.222566       0.096221
       0.880000       3.629158       0.223438       0.093409
       0.890000       3.525134       0.224748       0.090530
       0.900000       3.435861       0.226509       0.087577
       0.910000       3.360263       0.228736       0.084579
       0.920000       3.297541       0.231452       0.081588
       0.930000       3.247235       0.234681       0.078672
       0.940000       3.209249       0.238456       0.075900
       0.950000       3.183836       0.242814       0.073342
       0.960000       3.171542       0.247800       0.071061
       0.970000       3.173135       0.253465       0.069111
       0.980000       3.189551       0.259870       0.067535
       0.990000       3.221862       0.267084       0.066365
       1.000000       3.271267       0.275188       0.065618
       1.010000       3.339095       0.284270       0.065295
       1.020000       3.426801       0.294431       0.065386
       1.030000       3.535945       0.305780       0.065858
       1.040000       3.668123       0.318431       0.066661
       1.050000       3.824849       0.332500       0.067718
       1.060000       4.007346       0.348095       0.068929
       1.070000       4.216236       0.365301       0.070175
       1.080000       4.451116       0.384161       0.071331
       1.090000       4.710035       0.404652       0.072289
       1.100000       4.988958       0.426659       0.072976
       1.110000       5.281368       0.449945       0.073372
       1.120000       5.578260       0.474153       0.073501
       1.130000       5.868743       0.498814       0.073421
       1.140000       6.141349       0.523403       0.073195
       1.150000       6.385831       0.547426       0.072872
       1.160000       6.594921       0.570513       0.072481
       1.170000       6.765454       0.592501       0.072035
       1.180000       6.898483       0.613483       0.071551
       1.190000       6.998362       0.633792       0.071063
       1.200000       7.071191       0.653941       0.070626
       1.210000       7.123204       0.674522       0.070320
       1.220000       7.159718       0.696114       0.070227
       1.230000       7.184939       0.719208       0.070424
       1.240000       7.202396       0.744165       0.070966
       1.250000       7.215389       0.771164       0.071876
       1.260000       7.226941       0.800146       0.073141
       1.270000       7.239230       0.830727       0.074710
       1.280000       7.253034       0.862140       0.076495
       1.290000       7.267722       0.893264       0.078383
       1.300000       7.281923       0.922768       0.080250
       1.310000       7.294431       0.949392       0.081987
       1.320000       7.304681       0.972292       0.083524
       1.330000       7.312444       0.991321       0.084837
       1.340000       7.317039       1.007127       0.085943
       1.350000       7.316698       1.021006       0.086876
       1.360000       7.308560       1.034572       0.087654
       1.370000       7.289208       1.049361       0.088249
       1.380000       7.255217       1.066482       0.088588
       1.390000       7.203247       1.086370       0.088560
       1.400000       7.129727       1.108671       0.088049
       1.410000       7.030568       1.132261       0.086978
       1.420000       6.901354       1.155429       0.085335
       1.430000       6.738012       1.176224       0.083189
       1.440000       6.537668       1.192948       0.080675
       1.450000       6.299421       1.204642       0.077970
       1.460000       6.024944       1.211412       0.075259
       1.470000       5.718857       1.214432       0.072708
       1.480000       5.388648       1.215635       0.070450
       1.490000       5.043936       1.217221       0.068581
       1.500000       4.695159       1.221157       0.067166
       1.510000       4.352112       1.228801       0.066240
       1.520000       4.022821       1.240703       0.065822
       1.530000       3.712987       1.256563       0.065912
       1.540000       3.425993       1.275352       0.066495
       1.550000       3.163265       1.295580       0.067543
       1.560000       2.924771       1.315699       0.069002
       1.570000       2.709512       1.334565       0.070798
       1.580000       2.515921       1.351805       0.072824
       1.590000       2.342163       1.367960       0.074945
       1.600000       2.186331       1.384318       0.077008
       1.610000       2.046573       1.402503       0.078852
       1.620000       1.921157       1.423980       0.080333
       1.630000       1.808506       1.449615       0.081338
       1.640000       1.707211       1.479380       0.081798
       1.650000       1.616026       1.512260       0.081685
       1.660000       1.533857       1.546369       0.081011
       1.670000       1.459753       1.579304       0.079821
       1.680000       1.392891       1.608698       0.078189
       1.690000       1.332565       1.632845       0.076215
       1.700000       1.278170       1.651182       0.074016
       1.710000       1.229198       1.664420       0.071725
       1.720000       1.185217       1.674278       0.069470
       1.730000       1.145867       1.682940       0.067373
       1.740000       1.110843       1.692508       0.065534
       1.750000       1.079887       1.704644       0.064031
       1.760000       1.052773       1.720473       0.062919
       1.770000       1.029294       1.740675       0.062235
       1.780000       1.009241       1.765617       0.061998
       1.790000       0.992388       1.795408       0.062217
       1.800000       0.978467       1.829833       0.062890
       1.810000       0.967153       1.868243       0.064001
       1.820000       0.958060       1.909511       0.065519
       1.830000       0.950751       1.952121       0.067394
       1.840000       0.944788       1.994393       0.069548
       1.850000       0.939794       2.034776       0.071870
       1.860000       0.935526       2.072135       0.074222
       1.870000       0.931925       2.106007       0.076446
       1.880000       0.929122       2.136786       0.078381
       1.890000       0.927396       2.165780       0.079892
       1.900000       0.927095       2.195050       0.080890
       1.910000       0.928539       2.227023       0.081349
       1.920000       0.931940       2.263955       0.081308
       1.930000       0.937351       2.307441       0.080851
       1.940000       0.944673       2.358105       0.080089
       1.950000       0.953706       2.415572       0.079126
       1.960000       0.964253       2.478718       0.078050
       1.970000       0.976221       2.546111       0.076917
       1.980000       0.989675       2.616513       0.075767
       1.990000       1.004833       2.689296       0.074630
       2.000000       1.021963       2.764660       0.073543
       2.010000       1.041270       2.843628       0.072556
       2.020000       1.062788       2.927876       0.071728
       2.030000       1.086368       3.019474       0.071118
       2.040000       1.111740       3.120590       0.070771
       2.050000       1.138649       3.233213       0.070713
       2.060000       1.166984       3.358934       0.070935
       2.070000       1.196826       3.498828       0.071394
       2.080000       1.228385       3.653437       0.072018
       2.090000       1.261853       3.822775       0.072712
       2.100000       1.297254       4.006173       0.073381
       2.110000       1.334382       4.201828       0.073946
       2.120000       1.372867       4.406049       0.074371
       2.130000       1.412317       4.612394       0.074674
       2.140000       1.452457       4.811101       0.074920
       2.150000       1.493161       4.989234       0.075206
       2.160000       1.534370       5.131873       0.075639
       2.170000       1.575960       5.224379       0.076312
       2.180000       1.617659       5.255286       0.077290
       2.190000       1.659071       5.218935       0.078597
       2.200000       1.699755       5.116828       0.080215
       2.210000       1.739278       4.957173       0.082084
       2.220000       1.777170       4.752855       0.084108
       2.230000       1.812794       4.518707       0.086168
       2.240000       1.845214       4.268998       0.088141
       2.250000       1.873116       4.015731       0.089918
       2.260000       1.894790       3.767887       0.091423
       2.270000       1.908189       3.531509       0.092619
       2.280000       1.911068       3.310287       0.093497
       2.290000       1.901233       3.106330       0.094076
       2.300000       1.876894       2.920795       0.094398
       2.310000       1.837060       2.754258       0.094531
       2.320000       1.781889       2.606799       0.094570
       2.330000       1.712852       2.477938       0.094639
       2.340000       1.632631       2.366531       0.094872
       2.350000       1.544718       2.270718       0.095406
       2.360000       1.452847       2.187969       0.096364
       2.370000       1.360445       2.115252       0.097841
       2.380000       1.270253       2.049311       0.099906
       2.390000       1.184188       1.987045       0.102586
       2.400000       1.103393       1.925889       0.105869
       2.410000       1.028406       1.864134       0.109696
       2.420000       0.959349       1.801095       0.113957
       2.430000       0.896104       1.737097       0.118482
       2.440000       0.838429       1.673273       0.123050
       2.450000       0.786035       1.611223       0.127401
       2.460000       0.738610       1.552624       0.131267
       2.470000       0.695827       1.498903       0.134420
       2.480000       0.657337       1.451011       0.136721
       2.490000       0.622767       1.409338       0.138149
       2.500000       0.591723       1.373731       0.138809
       2.510000       0.563799       1.343598       0.138902
       2.520000       0.538596       1.318088       0.138679
       2.530000       0.515746       1.296320       0.138386
       2.540000       0.494934       1.277614       0.138213
       2.550000       0.475919       1.261684       0.138270
       2.560000       0.458536       1.248710       0.138575
       2.570000       0.442692       1.239282       0.139060
       2.580000       0.428343       1.234252       0.139596
       2.590000       0.415468       1.234559       0.140024
       2.600000       0.404059       1.241090       0.140185
       2.610000       0.394101       1.254590       0.139949
       2.620000       0.385574       1.275618       0.139228
       2.630000       0.378443       1.304521       0.137997
       2.640000       0.372660       1.341416       0.136298
       2.650000       0.368156       1.386163       0.134243
       2.660000       0.364839       1.438350       0.132009
       2.670000       0.362584       1.497314       0.129809
       2.680000       0.361227       1.562225       0.127864
       2.690000       0.360570       1.632266       0.126368
       2.700000       0.360380       1.706872       0.125474
       2.710000       0.360407       1.785960       0.125279
       2.720000       0.360403       1.870042       0.125826
       2.730000       0.360148       1.960132       0.127105
       2.740000       0.359483       2.057406       0.129060
       2.750000       0.358319       2.162724       0.131598
       2.760000       0.356645       2.276100       0.134589
       2.770000       0.354510       2.396289       0.137879
       2.780000       0.351994       2.520571       0.141300
       2.790000       0.349192       2.644829       0.144681
       2.800000       0.346214       2.763889       0.147861
       2.810000       0.343191       2.872038       0.150699
       2.820000       0.340281       2.963549       0.153081
       2.830000       0.337652       3.033071       0.154929
       2.840000       0.335453       3.075904       0.156197
       2.850000       0.333778       3.088262       0.156885
       2.860000       0.332639       3.067655       0.157036
       2.870000       0.331964       3.013401       0.156730
       2.880000       0.331622       2.927090       0.156079
       2.890000       0.331464       2.812756       0.155202
       2.900000       0.331380       2.676551       0.154221
       2.910000       0.331336       2.525925       0.153237
       2.920000       0.331386       2.368559       0.152337
       2.930000       0.331645       2.211372       0.151588
       2.940000       0.332244       2.059877       0.151045
       2.950000       0.333275       1.917937       0.150739
       2.960000       0.334756       1.787857       0.150675
       2.970000       0.336634       1.670660       0.150827
       2.980000       0.338810       1.566437       0.151136
       2.990000       0.341197       1.474668       0.151528
       3.000000       0.343777       1.394470       0.151925
       3.010000       0.346631       1.324765       0.152264
       3.020000       0.349942       1.264366       0.152506
       3.030000       0.353949       1.212013       0.152634
       3.040000       0.358893       1.166406       0.152657
       3.050000       0.364956       1.126256       0.152600
       3.060000       0.372231       1.090372       0.152501
       3.070000       0.380701       1.057755       0.152407
       3.080000       0.390251       1.027670       0.152366
       3.090000       0.400694       0.999670       0.152428
       3.100000       0.411818       0.973564       0.152641
       3.110000       0.423431       0.949351       0.153048
       3.120000       0.435392       0.927115       0.153682
       3.130000       0.447600       0.906918       0.154561
       3.140000       0.459944       0.888702       0.155673
       3.150000       0.472238       0.872242       0.156973
       3.160000       0.484163       0.857164       0.158378
       3.170000       0.495265       0.843024       0.159775
       3.180000       0.504985       0.829402       0.161037
       3.190000       0.512705       0.815982       0.162047
       3.200000       0.517806       0.802557       0.162726
       3.210000       0.519708       0.788993       0.163059
       3.220000       0.517937       0.775181       0.163104
       3.230000       0.512210       0.761030       0.162980
       3.240000       0.502524       0.746503       0.162842
       3.250000       0.489225       0.731686       0.162839
       3.260000       0.472994       0.716839       0.163079
