  # energy grid [eV]     epsi_x  epsi_y  epsi_z
       0.000000            NaN            NaN            NaN
       0.010000      24.745725       6.272547       4.564036
       0.020000      42.810258      10.242270       2.762023
       0.030000      52.161754      11.946354       2.008143
       0.040000      54.632456      12.165025       1.620595
       0.050000      52.968005      11.574370       1.396385
       0.060000      49.279296      10.618231       1.256343
       0.070000      44.843494       9.548089       1.162679
       0.080000      40.342271       8.492451       1.094507
       0.090000      36.105630       7.510497       1.039173
       0.100000      32.272436       6.624851       0.988859
       0.110000      28.882335       5.839729       0.939072
       0.120000      25.925600       5.150561       0.887748
       0.130000      23.369605       4.548998       0.834485
       0.140000      21.172849       4.025461       0.779841
       0.150000      19.292460       3.570424       0.724762
       0.160000      17.688246       3.175005       0.670228
       0.170000      16.324811       2.831211       0.617095
       0.180000      15.172400       2.532001       0.566067
       0.190000      14.206837       2.271252       0.517710
       0.200000      13.408870       2.043680       0.472466
       0.210000      12.763278       1.844752       0.430650
       0.220000      12.258024       1.670588       0.392441
       0.230000      11.883630       1.517868       0.357891
       0.240000      11.632782       1.383750       0.326934
       0.250000      11.500113       1.265787       0.299415
       0.260000      11.482063       1.161859       0.275119
       0.270000      11.576786       1.070110       0.253794
       0.280000      11.784033       0.988885       0.235179
       0.290000      12.105033       0.916689       0.219014
       0.300000      12.542361       0.852158       0.205053
       0.310000      13.099780       0.794045       0.193074
       0.320000      13.782012       0.741242       0.182880
       0.330000      14.594315       0.692814       0.174304
       0.340000      15.541675       0.648031       0.167208
       0.350000      16.627390       0.606381       0.161474
       0.360000      17.850899       0.567554       0.157003
       0.370000      19.204921       0.531380       0.153699
       0.380000      20.672231       0.497773       0.151469
       0.390000      22.222762       0.466672       0.150217
       0.400000      23.811978       0.438002       0.149840
       0.410000      25.381514       0.411666       0.150222
       0.420000      26.862749       0.387539       0.151231
       0.430000      28.183255       0.365477       0.152700
       0.440000      29.275299       0.345329       0.154416
       0.450000      30.085038       0.326938       0.156122
       0.460000      30.580758       0.310155       0.157538
       0.470000      30.758252       0.294838       0.158398
       0.480000      30.641423       0.280854       0.158507
       0.490000      30.276942       0.268085       0.157778
       0.500000      29.723546       0.256420       0.156234
       0.510000      29.038708       0.245761       0.153972
       0.520000      28.266814       0.236021       0.151104
       0.530000      27.432648       0.227121       0.147707
       0.540000      26.542096       0.218990       0.143796
       0.550000      25.589297       0.211565       0.139344
       0.560000      24.567057       0.204792       0.134321
       0.570000      23.476279       0.198620       0.128745
       0.580000      22.330871       0.193004       0.122708
       0.590000      21.156804       0.187904       0.116372
       0.600000      19.986547       0.183286       0.109942
       0.610000      18.851653       0.179118       0.103625
       0.620000      17.776289       0.175371       0.097597
       0.630000      16.773370       0.172022       0.091989
       0.640000      15.843749       0.169047       0.086875
       0.650000      14.978116       0.166429       0.082285
       0.660000      14.160934       0.164149       0.078208
       0.670000      13.375466       0.162194       0.074610
       0.680000      12.608573       0.160550       0.071436
       0.690000      11.853868       0.159207       0.068630
       0.700000      11.112327       0.158156       0.066138
       0.710000      10.390547       0.157391       0.063923
       0.720000       9.697784       0.156907       0.061962
       0.730000       9.043111       0.156700       0.060253
       0.740000       8.433551       0.156768       0.058807
       0.750000       7.873337       0.157111       0.057640
       0.760000       7.364029       0.157733       0.056775
       0.770000       6.905065       0.158636       0.056232
       0.780000       6.494432       0.159827       0.056028
       0.790000       6.129274       0.161313       0.056180
       0.800000       5.806357       0.163106       0.056699
       0.810000       5.522396       0.165218       0.057596
       0.820000       5.274256       0.167666       0.058874
       0.830000       5.059072       0.170468       0.060532
       0.840000       4.874303       0.173647       0.062551
       0.850000       4.717748       0.177230       0.064899
       0.860000       4.587540       0.181248       0.067514
       0.870000       4.482142       0.185737       0.070308
       0.880000       4.400336       0.190740       0.073161
       0.890000       4.341235       0.196304       0.075928
       0.900000       4.304307       0.202487       0.078451
       0.910000       4.289411       0.209351       0.080580
       0.920000       4.296823       0.216970       0.082192
       0.930000       4.327235       0.225424       0.083216
       0.940000       4.381720       0.234804       0.083643
       0.950000       4.461639       0.245207       0.083536
       0.960000       4.568521       0.256735       0.083011
       0.970000       4.703886       0.269490       0.082217
       0.980000       4.869011       0.283564       0.081299
       0.990000       5.064612       0.299026       0.080373
       1.000000       5.290431       0.315905       0.079510
       1.010000       5.544728       0.334165       0.078737
       1.020000       5.823759       0.353677       0.078050
       1.030000       6.121375       0.374199       0.077425
       1.040000       6.428972       0.395364       0.076839
       1.050000       6.736001       0.416694       0.076264
       1.060000       7.031143       0.437649       0.075673
       1.070000       7.303955       0.457704       0.075027
       1.080000       7.546542       0.476441       0.074273
       1.090000       7.754691       0.493628       0.073358
       1.100000       7.928088       0.509267       0.072240
       1.110000       8.069627       0.523582       0.070910
       1.120000       8.184172       0.536970       0.069398
       1.130000       8.277324       0.549933       0.067777
       1.140000       8.354654       0.563017       0.066147
       1.150000       8.421441       0.576775       0.064618
       1.160000       8.482625       0.591751       0.063284
       1.170000       8.542612       0.608459       0.062220
       1.180000       8.604853       0.627349       0.061465
       1.190000       8.671518       0.648763       0.061025
       1.200000       8.743616       0.672888       0.060875
       1.210000       8.821552       0.699708       0.060956
       1.220000       8.905749       0.728965       0.061190
       1.230000       8.996854       0.760108       0.061485
       1.240000       9.095431       0.792280       0.061753
       1.250000       9.201464       0.824358       0.061926
       1.260000       9.314121       0.855104       0.061966
       1.270000       9.431928       0.883416       0.061864
       1.280000       9.553079       0.908628       0.061637
       1.290000       9.675478       0.930727       0.061308
       1.300000       9.796418       0.950377       0.060905
       1.310000       9.912088       0.968729       0.060450
       1.320000      10.017233       0.987056       0.059975
       1.330000      10.105034       1.006368       0.059518
       1.340000      10.167091       1.027100       0.059134
       1.350000      10.193481       1.048948       0.058884
       1.360000      10.173022       1.070890       0.058833
       1.370000      10.094040       1.091407       0.059033
       1.380000       9.945769       1.108888       0.059517
       1.390000       9.720287       1.122117       0.060291
       1.400000       9.414601       1.130703       0.061334
       1.410000       9.032238       1.135273       0.062593
       1.420000       8.583677       1.137348       0.063992
       1.430000       8.085216       1.138958       0.065443
       1.440000       7.556525       1.142163       0.066857
       1.450000       7.017641       1.148630       0.068167
       1.460000       6.486342       1.159352       0.069332
       1.470000       5.976510       1.174533       0.070339
       1.480000       5.497620       1.193615       0.071190
       1.490000       5.055075       1.215452       0.071879
       1.500000       4.651011       1.238618       0.072372
       1.510000       4.285221       1.261808       0.072609
       1.520000       3.955984       1.284233       0.072510
       1.530000       3.660724       1.305864       0.072004
       1.540000       3.396474       1.327398       0.071057
       1.550000       3.160189       1.349956       0.069691
       1.560000       2.948929       1.374613       0.067990
       1.570000       2.759964       1.401929       0.066078
       1.580000       2.590822       1.431636       0.064101
       1.590000       2.439305       1.462549       0.062198
       1.600000       2.303476       1.492757       0.060490
       1.610000       2.181650       1.520065       0.059067
       1.620000       2.072365       1.542583       0.057992
       1.630000       1.974366       1.559259       0.057306
       1.640000       1.886576       1.570152       0.057029
       1.650000       1.808073       1.576345       0.057167
       1.660000       1.738069       1.579577       0.057713
       1.670000       1.675884       1.581822       0.058647
       1.680000       1.620920       1.584991       0.059932
       1.690000       1.572642       1.590801       0.061513
       1.700000       1.530543       1.600728       0.063313
       1.710000       1.494125       1.615941       0.065233
       1.720000       1.462883       1.637142       0.067159
       1.730000       1.436290       1.664375       0.068974
       1.740000       1.413821       1.696866       0.070568
       1.750000       1.394978       1.733018       0.071853
       1.760000       1.379332       1.770593       0.072767
       1.770000       1.366567       1.807088       0.073274
       1.780000       1.356496       1.840226       0.073367
       1.790000       1.349047       1.868440       0.073074
       1.800000       1.344229       1.891176       0.072457
       1.810000       1.342078       1.908935       0.071618
       1.820000       1.342605       1.923003       0.070683
       1.830000       1.345760       1.935002       0.069791
       1.840000       1.351440       1.946422       0.069074
       1.850000       1.359525       1.958305       0.068643
       1.860000       1.369932       1.971164       0.068580
       1.870000       1.382641       1.985084       0.068937
       1.880000       1.397674       1.999929       0.069733
       1.890000       1.415036       2.015575       0.070959
       1.900000       1.434665       2.032085       0.072571
       1.910000       1.456444       2.049784       0.074500
       1.920000       1.480252       2.069224       0.076648
       1.930000       1.506026       2.091065       0.078900
       1.940000       1.533766       2.115940       0.081133
       1.950000       1.563470       2.144362       0.083228
       1.960000       1.595048       2.176634       0.085077
       1.970000       1.628279       2.212746       0.086588
       1.980000       1.662849       2.252235       0.087685
       1.990000       1.698452       2.294068       0.088313
       2.000000       1.734855       2.336632       0.088451
       2.010000       1.771892       2.377844       0.088118
       2.020000       1.809374       2.415347       0.087382
       2.030000       1.847008       2.446695       0.086349
       2.040000       1.884357       2.469546       0.085141
       2.050000       1.920862       2.481887       0.083871
       2.060000       1.955856       2.482371       0.082629
       2.070000       1.988541       2.470678       0.081473
       2.080000       2.017925       2.447704       0.080426
       2.090000       2.042741       2.415403       0.079492
       2.100000       2.061390       2.376291       0.078663
       2.110000       2.071922       2.332785       0.077931
       2.120000       2.072115       2.286678       0.077299
       2.130000       2.059675       2.238937       0.076775
       2.140000       2.032588       2.189855       0.076372
       2.150000       1.989572       2.139418       0.076093
       2.160000       1.930505       2.087684       0.075927
       2.170000       1.856682       2.035036       0.075842
       2.180000       1.770751       1.982272       0.075791
       2.190000       1.676340       1.930547       0.075726
       2.200000       1.577451       1.881190       0.075616
       2.210000       1.477865       1.835442       0.075459
       2.220000       1.380695       1.794173       0.075293
       2.230000       1.288178       1.757707       0.075181
       2.240000       1.201690       1.725806       0.075204
       2.250000       1.121892       1.697838       0.075440
       2.260000       1.048932       1.673037       0.075951
       2.270000       0.982635       1.650729       0.076772
       2.280000       0.922651       1.630426       0.077909
       2.290000       0.868552       1.611789       0.079338
       2.300000       0.819881       1.594553       0.081008
       2.310000       0.776184       1.578512       0.082847
       2.320000       0.737021       1.563605       0.084776
       2.330000       0.701976       1.550008       0.086710
       2.340000       0.670655       1.538131       0.088573
       2.350000       0.642682       1.528452       0.090300
       2.360000       0.617696       1.521235       0.091846
       2.370000       0.595346       1.516262       0.093199
       2.380000       0.575290       1.512711       0.094384
       2.390000       0.557205       1.509276       0.095466
       2.400000       0.540799       1.504518       0.096541
       2.410000       0.525833       1.497353       0.097723
       2.420000       0.512127       1.487488       0.099121
       2.430000       0.499561       1.475624       0.100821
       2.440000       0.488061       1.463350       0.102875
       2.450000       0.477569       1.452792       0.105290
       2.460000       0.468032       1.446196       0.108031
       2.470000       0.459390       1.445587       0.111022
       2.480000       0.451582       1.452569       0.114152
       2.490000       0.444561       1.468268       0.117288
       2.500000       0.438299       1.493354       0.120287
       2.510000       0.432785       1.528100       0.123009
       2.520000       0.428008       1.572453       0.125332
       2.530000       0.423935       1.626117       0.127171
       2.540000       0.420497       1.688653       0.128475
       2.550000       0.417583       1.759583       0.129242
       2.560000       0.415057       1.838484       0.129513
       2.570000       0.412766       1.925035       0.129371
       2.580000       0.410572       2.018981       0.128936
       2.590000       0.408356       2.119975       0.128355
       2.600000       0.406021       2.227285       0.127783
       2.610000       0.403496       2.339399       0.127366
       2.620000       0.400733       2.453605       0.127215
       2.630000       0.397725       2.565697       0.127390
       2.640000       0.394520       2.669937       0.127887
       2.650000       0.391237       2.759379       0.128637
       2.660000       0.388051       2.826565       0.129515
       2.670000       0.385168       2.864534       0.130371
       2.680000       0.382784       2.867994       0.131058
       2.690000       0.381051       2.834410       0.131480
       2.700000       0.380060       2.764687       0.131613
       2.710000       0.379842       2.663174       0.131516
       2.720000       0.380382       2.536912       0.131313
       2.730000       0.381638       2.394360       0.131162
       2.740000       0.383558       2.243999       0.131215
       2.750000       0.386078       2.093225       0.131585
       2.760000       0.389124       1.947738       0.132327
       2.770000       0.392602       1.811404       0.133423
       2.780000       0.396412       1.686472       0.134792
       2.790000       0.400479       1.573941       0.136302
       2.800000       0.404794       1.473956       0.137792
       2.810000       0.409447       1.386141       0.139104
       2.820000       0.414622       1.309828       0.140105
       2.830000       0.420565       1.244189       0.140713
       2.840000       0.427515       1.188279       0.140903
       2.850000       0.435643       1.141045       0.140714
       2.860000       0.445001       1.101308       0.140236
       2.870000       0.455512       1.067770       0.139589
       2.880000       0.466986       1.039064       0.138903
       2.890000       0.479166       1.013847       0.138295
       2.900000       0.491787       0.990941       0.137844
       2.910000       0.504608       0.969467       0.137583
       2.920000       0.517411       0.948937       0.137487
       2.930000       0.529957       0.929259       0.137493
       2.940000       0.541934       0.910649       0.137514
       2.950000       0.552923       0.893476       0.137475
       2.960000       0.562402       0.878093       0.137339
       2.970000       0.569779       0.864697       0.137119
       2.980000       0.574444       0.853242       0.136874
       2.990000       0.575826       0.843440       0.136685
       3.000000       0.573471       0.834839       0.136626
       3.010000       0.567129       0.826948       0.136744
       3.020000       0.556841       0.819369       0.137042
       3.030000       0.542992       0.811881       0.137492
       3.040000       0.526289       0.804426       0.138041
       3.050000       0.507655       0.797034       0.138635
       3.060000       0.488078       0.789717       0.139238
       3.070000       0.468454       0.782414       0.139835
       3.080000       0.449476       0.774998       0.140439
       3.090000       0.431583       0.767348       0.141083
       3.100000       0.414971       0.759428       0.141804
       3.110000       0.399641       0.751323       0.142637
       3.120000       0.385471       0.743235       0.143607
       3.130000       0.372279       0.735454       0.144720
       3.140000       0.359876       0.728324       0.145965
       3.150000       0.348102       0.722225       0.147307
       3.160000       0.336841       0.717552       0.148691
       3.170000       0.326031       0.714682       0.150051
       3.180000       0.315654       0.713932       0.151328
       3.190000       0.305735       0.715527       0.152487
       3.200000       0.296317       0.719590       0.153530
       3.210000       0.287455       0.726158       0.154502
       3.220000       0.279197       0.735246       0.155477
       3.230000       0.271578       0.746910       0.156535
       3.240000       0.264627       0.761302       0.157725
       3.250000       0.258358       0.778692       0.159049
       3.260000       0.252773       0.799427       0.160441
