  # energy grid [eV]     epsi_x  epsi_y  epsi_z
       0.000000            NaN            NaN            NaN
       0.010000       0.236085       0.003736       0.167227
       0.020000       0.473476       0.007500       0.219158
       0.030000       0.713496       0.011317       0.259792
       0.040000       0.957504       0.015217       0.299712
       0.050000       1.206913       0.019230       0.336117
       0.060000       1.463211       0.023389       0.366137
       0.070000       1.727981       0.027727       0.387941
       0.080000       2.002927       0.032284       0.400748
       0.090000       2.289899       0.037103       0.404746
       0.100000       2.590925       0.042232       0.400950
       0.110000       2.908242       0.047723       0.390957
       0.120000       3.244339       0.053637       0.376629
       0.130000       3.602000       0.060039       0.359773
       0.140000       3.984355       0.067003       0.341888
       0.150000       4.394939       0.074604       0.324036
       0.160000       4.837763       0.082926       0.306815
       0.170000       5.317387       0.092045       0.290440
       0.180000       5.839010       0.102034       0.274873
       0.190000       6.408561       0.112938       0.259966
       0.200000       7.032804       0.124766       0.245592
       0.210000       7.719435       0.137459       0.231708
       0.220000       8.477180       0.150860       0.218372
       0.230000       9.315858       0.164683       0.205701
       0.240000      10.246393       0.178486       0.193816
       0.250000      11.280729       0.191670       0.182793
       0.260000      12.431572       0.203528       0.172636
       0.270000      13.711875       0.213337       0.163269
       0.280000      15.133917       0.220499       0.154561
       0.290000      16.707830       0.224673       0.146352
       0.300000      18.439401       0.225846       0.138496
       0.310000      20.327059       0.224307       0.130901
       0.320000      22.358136       0.220531       0.123545
       0.330000      24.504859       0.215044       0.116471
       0.340000      26.721032       0.208308       0.109771
       0.350000      28.940886       0.200678       0.103553
       0.360000      31.081693       0.192424       0.097914
       0.370000      33.051135       0.183772       0.092932
       0.380000      34.759059       0.174947       0.088659
       0.390000      36.131504       0.166182       0.085121
       0.400000      37.123511       0.157701       0.082327
       0.410000      37.726788       0.149702       0.080276
       0.420000      37.969058       0.142330       0.078958
       0.430000      37.904414       0.135678       0.078358
       0.440000      37.597590       0.129786       0.078455
       0.450000      37.108088       0.124654       0.079219
       0.460000      36.480346       0.120253       0.080600
       0.470000      35.743123       0.116538       0.082522
       0.480000      34.916539       0.113455       0.084869
       0.490000      34.021447       0.110945       0.087480
       0.500000      33.085214       0.108951       0.090143
       0.510000      32.140734       0.107420       0.092605
       0.520000      31.219760       0.106301       0.094599
       0.530000      30.344670       0.105550       0.095882
       0.540000      29.523100       0.105125       0.096274
       0.550000      28.748066       0.104996       0.095687
       0.560000      28.003541       0.105135       0.094132
       0.570000      27.273048       0.105522       0.091703
       0.580000      26.547463       0.106142       0.088555
       0.590000      25.828549       0.106984       0.084874
       0.600000      25.126867       0.108040       0.080860
       0.610000      24.455581       0.109304       0.076711
       0.620000      23.823470       0.110770       0.072602
       0.630000      23.230451       0.112436       0.068675
       0.640000      22.667400       0.114299       0.065035
       0.650000      22.119978       0.116358       0.061742
       0.660000      21.574406       0.118615       0.058817
       0.670000      21.022265       0.121073       0.056250
       0.680000      20.461947       0.123734       0.054002
       0.690000      19.896347       0.126605       0.052019
       0.700000      19.328471       0.129695       0.050241
       0.710000      18.757717       0.133013       0.048614
       0.720000      18.178931       0.136571       0.047097
       0.730000      17.584605       0.140384       0.045670
       0.740000      16.968745       0.144470       0.044329
       0.750000      16.330091       0.148849       0.043085
       0.760000      15.672934       0.153545       0.041954
       0.770000      15.005417       0.158586       0.040948
       0.780000      14.336747       0.164003       0.040078
       0.790000      13.675105       0.169834       0.039352
       0.800000      13.027237       0.176120       0.038776
       0.810000      12.399391       0.182911       0.038361
       0.820000      11.798518       0.190262       0.038122
       0.830000      11.232733       0.198235       0.038077
       0.840000      10.710811       0.206902       0.038247
       0.850000      10.241114       0.216342       0.038652
       0.860000       9.830604       0.226640       0.039311
       0.870000       9.484284       0.237890       0.040239
       0.880000       9.205127       0.250187       0.041443
       0.890000       8.994275       0.263620       0.042922
       0.900000       8.851294       0.278270       0.044664
       0.910000       8.774293       0.294185       0.046636
       0.920000       8.759853       0.311367       0.048784
       0.930000       8.802745       0.329746       0.051026
       0.940000       8.895583       0.349152       0.053256
       0.950000       9.028585       0.369296       0.055349
       0.960000       9.189750       0.389766       0.057176
       0.970000       9.365646       0.410053       0.058626
       0.980000       9.542856       0.429601       0.059618
       0.990000       9.709767       0.447903       0.060110
       1.000000       9.858117       0.464576       0.060098
       1.010000       9.983763       0.479436       0.059608
       1.020000      10.086442       0.492515       0.058685
       1.030000      10.168819       0.504035       0.057393
       1.040000      10.235297       0.514370       0.055810
       1.050000      10.290964       0.523983       0.054026
       1.060000      10.340775       0.533386       0.052140
       1.070000      10.388958       0.543096       0.050248
       1.080000      10.438696       0.553609       0.048433
       1.090000      10.492155       0.565385       0.046763
       1.100000      10.550742       0.578847       0.045280
       1.110000      10.615289       0.594384       0.044011
       1.120000      10.685999       0.612343       0.042970
       1.130000      10.762244       0.633015       0.042165
       1.140000      10.842462       0.656608       0.041599
       1.150000      10.924194       0.683208       0.041279
       1.160000      11.004079       0.712737       0.041209
       1.170000      11.077646       0.744901       0.041389
       1.180000      11.138988       0.779154       0.041813
       1.190000      11.180508       0.814693       0.042462
       1.200000      11.192878       0.850527       0.043307
       1.210000      11.165224       0.885628       0.044302
       1.220000      11.085659       0.919136       0.045390
       1.230000      10.942330       0.950554       0.046511
       1.240000      10.725097       0.979832       0.047605
       1.250000      10.427672       1.007286       0.048622
       1.260000      10.049699       1.033346       0.049526
       1.270000       9.598013       1.058260       0.050293
       1.280000       9.086411       1.081856       0.050907
       1.290000       8.533762       1.103500       0.051356
       1.300000       7.961009       1.122268       0.051633
       1.310000       7.388057       1.137313       0.051742
       1.320000       6.831463       1.148266       0.051702
       1.330000       6.303312       1.155527       0.051547
       1.340000       5.811193       1.160311       0.051324
       1.350000       5.358850       1.164435       0.051078
       1.360000       4.947123       1.169963       0.050849
       1.370000       4.574876       1.178835       0.050668
       1.380000       4.239774       1.192585       0.050558
       1.390000       3.938861       1.212177       0.050539
       1.400000       3.668953       1.237944       0.050625
       1.410000       3.426894       1.269601       0.050821
       1.420000       3.209700       1.306333       0.051119
       1.430000       3.014636       1.346952       0.051489
       1.440000       2.839244       1.390143       0.051882
       1.450000       2.681346       1.434744       0.052239
       1.460000       2.539031       1.479970       0.052502
       1.470000       2.410633       1.525467       0.052626
       1.480000       2.294705       1.571136       0.052593
       1.490000       2.189995       1.616783       0.052405
       1.500000       2.095424       1.661752       0.052079
       1.510000       2.010054       1.704728       0.051639
       1.520000       1.933071       1.743840       0.051104
       1.530000       1.863761       1.777097       0.050492
       1.540000       1.801484       1.803020       0.049824
       1.550000       1.745660       1.821243       0.049123
       1.560000       1.695747       1.832827       0.048415
       1.570000       1.651237       1.840191       0.047727
       1.580000       1.611658       1.846683       0.047072
       1.590000       1.576604       1.855994       0.046449
       1.600000       1.545762       1.871608       0.045843
       1.610000       1.518947       1.896407       0.045228
       1.620000       1.496115       1.932444       0.044582
       1.630000       1.477346       1.980845       0.043895
       1.640000       1.462791       2.041754       0.043180
       1.650000       1.452611       2.114314       0.042468
       1.660000       1.446916       2.196663       0.041805
       1.670000       1.445712       2.286011       0.041245
       1.680000       1.448876       2.378860       0.040835
       1.690000       1.456158       2.471374       0.040617
       1.700000       1.467200       2.559872       0.040621
       1.710000       1.481578       2.641307       0.040869
       1.720000       1.498858       2.713625       0.041372
       1.730000       1.518647       2.775966       0.042134
       1.740000       1.540628       2.828746       0.043147
       1.750000       1.564574       2.873684       0.044392
       1.760000       1.590331       2.913745       0.045837
       1.770000       1.617807       2.952953       0.047433
       1.780000       1.646949       2.996041       0.049118
       1.790000       1.677729       3.047973       0.050815
       1.800000       1.710111       3.113442       0.052444
       1.810000       1.744011       3.196442       0.053926
       1.820000       1.779266       3.299965       0.055197
       1.830000       1.815631       3.425838       0.056209
       1.840000       1.852795       3.574641       0.056940
       1.850000       1.890389       3.745662       0.057393
       1.860000       1.927954       3.936804       0.057594
       1.870000       1.964893       4.144401       0.057590
       1.880000       2.000413       4.362918       0.057451
       1.890000       2.033471       4.584628       0.057261
       1.900000       2.062731       4.799464       0.057113
       1.910000       2.086547       4.995316       0.057091
       1.920000       2.102993       5.159050       0.057266
       1.930000       2.109963       5.278302       0.057685
       1.940000       2.105320       5.343771       0.058362
       1.950000       2.087122       5.351353       0.059285
       1.960000       2.053918       5.303260       0.060409
       1.970000       2.005090       5.207570       0.061673
       1.980000       1.941153       5.076283       0.063002
       1.990000       1.863888       4.922628       0.064325
       2.000000       1.776200       4.758536       0.065582
       2.010000       1.681714       4.592985       0.066732
       2.020000       1.584215       4.431416       0.067748
       2.030000       1.487130       4.276102       0.068612
       2.040000       1.393179       4.127106       0.069304
       2.050000       1.304246       3.983417       0.069810
       2.060000       1.221431       3.843913       0.070112
       2.070000       1.145204       3.707955       0.070205
       2.080000       1.075590       3.575562       0.070093
       2.090000       1.012340       3.447293       0.069788
       2.100000       0.955064       3.323997       0.069312
       2.110000       0.903321       3.206589       0.068693
       2.120000       0.856669       3.095927       0.067970
       2.130000       0.814680       2.992786       0.067189
       2.140000       0.776952       2.897831       0.066406
       2.150000       0.743103       2.811559       0.065676
       2.160000       0.712769       2.734231       0.065052
       2.170000       0.685605       2.665864       0.064577
       2.180000       0.661282       2.606300       0.064282
       2.190000       0.639486       2.555305       0.064194
       2.200000       0.619913       2.512611       0.064332
       2.210000       0.602276       2.477878       0.064710
       2.220000       0.586303       2.450608       0.065329
       2.230000       0.571749       2.430137       0.066173
       2.240000       0.558398       2.415730       0.067202
       2.250000       0.546071       2.406794       0.068350
       2.260000       0.534618       2.403135       0.069538
       2.270000       0.523906       2.405161       0.070678
       2.280000       0.513818       2.413961       0.071703
       2.290000       0.504253       2.431186       0.072570
       2.300000       0.495140       2.458788       0.073278
       2.310000       0.486448       2.498663       0.073851
       2.320000       0.478193       2.552337       0.074327
       2.330000       0.470423       2.620728       0.074737
       2.340000       0.463202       2.703992       0.075090
       2.350000       0.456586       2.801401       0.075378
       2.360000       0.450604       2.911213       0.075583
       2.370000       0.445244       3.030536       0.075699
       2.380000       0.440444       3.155268       0.075743
       2.390000       0.436097       3.280186       0.075762
       2.400000       0.432067       3.399215       0.075831
       2.410000       0.428216       3.505826       0.076033
       2.420000       0.424436       3.593483       0.076447
       2.430000       0.420687       3.656077       0.077134
       2.440000       0.417008       3.688387       0.078125
       2.450000       0.413518       3.686596       0.079420
       2.460000       0.410390       3.648865       0.080985
       2.470000       0.407818       3.575844       0.082751
       2.480000       0.405985       3.470910       0.084619
       2.490000       0.405040       3.339897       0.086470
       2.500000       0.405087       3.190295       0.088179
       2.510000       0.406172       3.030094       0.089636
       2.520000       0.408287       2.866646       0.090762
       2.530000       0.411365       2.705856       0.091530
       2.540000       0.415285       2.551872       0.091957
       2.550000       0.419895       2.407232       0.092104
       2.560000       0.425040       2.273266       0.092054
       2.570000       0.430605       2.150559       0.091898
       2.580000       0.436553       2.039294       0.091716
       2.590000       0.442938       1.939416       0.091571
       2.600000       0.449892       1.850638       0.091507
       2.610000       0.457570       1.772388       0.091556
       2.620000       0.466089       1.703749       0.091747
       2.630000       0.475474       1.643485       0.092116
       2.640000       0.485634       1.590151       0.092705
       2.650000       0.496374       1.542300       0.093559
       2.660000       0.507437       1.498718       0.094712
       2.670000       0.518563       1.458620       0.096176
       2.680000       0.529533       1.421729       0.097933
       2.690000       0.540170       1.388208       0.099922
       2.700000       0.550303       1.358472       0.102041
       2.710000       0.559704       1.332975       0.104156
       2.720000       0.568039       1.312012       0.106118
       2.730000       0.574861       1.295617       0.107790
       2.740000       0.579635       1.283539       0.109071
       2.750000       0.581809       1.275300       0.109917
       2.760000       0.580896       1.270306       0.110337
       2.770000       0.576569       1.267962       0.110386
       2.780000       0.568750       1.267757       0.110147
       2.790000       0.557663       1.269295       0.109715
       2.800000       0.543824       1.272272       0.109185
       2.810000       0.527980       1.276452       0.108648
       2.820000       0.510985       1.281658       0.108185
       2.830000       0.493678       1.287796       0.107869
       2.840000       0.476771       1.294883       0.107766
       2.850000       0.460792       1.303049       0.107929
       2.860000       0.446060       1.312529       0.108402
       2.870000       0.432712       1.323639       0.109208
       2.880000       0.420746       1.336777       0.110344
       2.890000       0.410080       1.352438       0.111770
       2.900000       0.400605       1.371219       0.113405
       2.910000       0.392225       1.393788       0.115133
       2.920000       0.384877       1.420804       0.116826
       2.930000       0.378526       1.452843       0.118369
       2.940000       0.373160       1.490332       0.119689
       2.950000       0.368779       1.533535       0.120773
       2.960000       0.365387       1.582558       0.121670
       2.970000       0.362987       1.637379       0.122468
       2.980000       0.361583       1.697882       0.123274
       2.990000       0.361170       1.763898       0.124183
       3.000000       0.361731       1.835219       0.125265
       3.010000       0.363239       1.911576       0.126554
       3.020000       0.365649       1.992560       0.128051
       3.030000       0.368908       2.077523       0.129735
       3.040000       0.372963       2.165495       0.131562
       3.050000       0.377777       2.255129       0.133479
       3.060000       0.383342       2.344718       0.135417
       3.070000       0.389691       2.432276       0.137297
       3.080000       0.396902       2.515696       0.139028
       3.090000       0.405110       2.592927       0.140513
       3.100000       0.414496       2.662112       0.141661
       3.110000       0.425290       2.721602       0.142411
       3.120000       0.437754       2.769889       0.142746
       3.130000       0.452173       2.805565       0.142706
       3.140000       0.468840       2.827439       0.142380
       3.150000       0.488038       2.834832       0.141882
       3.160000       0.510024       2.827956       0.141324
       3.170000       0.534997       2.808202       0.140784
       3.180000       0.563064       2.778153       0.140298
       3.190000       0.594189       2.741277       0.139856
       3.200000       0.628130       2.701382       0.139427
       3.210000       0.664368       2.662022       0.138976
       3.220000       0.702032       2.626015       0.138491
       3.230000       0.739846       2.595190       0.137992
       3.240000       0.776148       2.570371       0.137526
       3.250000       0.809028       2.551585       0.137157
       3.260000       0.836597       2.538404       0.136951
