  # energy grid [eV]     epsi_x  epsi_y  epsi_z
       0.000000            NaN            NaN            NaN
       0.010000       0.002233       0.001426       1.321145
       0.020000       0.004467       0.002853       2.113784
       0.030000       0.006706       0.004283       2.368474
       0.040000       0.008949       0.005719       2.318553
       0.050000       0.011200       0.007160       2.145797
       0.060000       0.013461       0.008609       1.941930
       0.070000       0.015732       0.010068       1.745193
       0.080000       0.018017       0.011538       1.568900
       0.090000       0.020316       0.013021       1.415696
       0.100000       0.022633       0.014519       1.283871
       0.110000       0.024969       0.016033       1.170089
       0.120000       0.027326       0.017566       1.070650
       0.130000       0.029707       0.019120       0.982160
       0.140000       0.032113       0.020696       0.901918
       0.150000       0.034547       0.022297       0.828098
       0.160000       0.037011       0.023925       0.759718
       0.170000       0.039509       0.025583       0.696450
       0.180000       0.042042       0.027273       0.638343
       0.190000       0.044613       0.028998       0.585575
       0.200000       0.047225       0.030761       0.538277
       0.210000       0.049881       0.032565       0.496458
       0.220000       0.052584       0.034413       0.459987
       0.230000       0.055338       0.036309       0.428616
       0.240000       0.058146       0.038257       0.402006
       0.250000       0.061011       0.040261       0.379757
       0.260000       0.063938       0.042326       0.361416
       0.270000       0.066931       0.044457       0.346495
       0.280000       0.069994       0.046658       0.334475
       0.290000       0.073132       0.048937       0.324825
       0.300000       0.076351       0.051299       0.317030
       0.310000       0.079656       0.053751       0.310628
       0.320000       0.083052       0.056302       0.305234
       0.330000       0.086547       0.058960       0.300544
       0.340000       0.090147       0.061735       0.296306
       0.350000       0.093859       0.064638       0.292267
       0.360000       0.097693       0.067680       0.288131
       0.370000       0.101656       0.070875       0.283533
       0.380000       0.105758       0.074237       0.278083
       0.390000       0.110009       0.077784       0.271437
       0.400000       0.114418       0.081533       0.263396
       0.410000       0.118995       0.085506       0.253967
       0.420000       0.123750       0.089724       0.243372
       0.430000       0.128691       0.094212       0.231996
       0.440000       0.133824       0.098997       0.220305
       0.450000       0.139156       0.104107       0.208763
       0.460000       0.144690       0.109571       0.197773
       0.470000       0.150428       0.115417       0.187641
       0.480000       0.156376       0.121672       0.178571
       0.490000       0.162545       0.128358       0.170664
       0.500000       0.168952       0.135493       0.163935
       0.510000       0.175626       0.143092       0.158327
       0.520000       0.182605       0.151166       0.153724
       0.530000       0.189935       0.159732       0.149966
       0.540000       0.197668       0.168820       0.146875
       0.550000       0.205855       0.178483       0.144275
       0.560000       0.214553       0.188798       0.142020
       0.570000       0.223815       0.199863       0.140012
       0.580000       0.233697       0.211781       0.138204
       0.590000       0.244253       0.224642       0.136585
       0.600000       0.255539       0.238499       0.135150
       0.610000       0.267608       0.253351       0.133880
       0.620000       0.280509       0.269124       0.132727
       0.630000       0.294283       0.285672       0.131615
       0.640000       0.308959       0.302786       0.130450
       0.650000       0.324553       0.320225       0.129139
       0.660000       0.341069       0.337762       0.127603
       0.670000       0.358501       0.355241       0.125797
       0.680000       0.376834       0.372624       0.123721
       0.690000       0.396043       0.390023       0.121432
       0.700000       0.416069       0.407682       0.119039
       0.710000       0.436789       0.425918       0.116690
       0.720000       0.457986       0.445035       0.114541
       0.730000       0.479332       0.465227       0.112737
       0.740000       0.500410       0.486526       0.111379
       0.750000       0.520789       0.508794       0.110518
       0.760000       0.540130       0.531771       0.110141
       0.770000       0.558297       0.555163       0.110182
       0.780000       0.575425       0.578738       0.110527
       0.790000       0.591902       0.602384       0.111044
       0.800000       0.608287       0.626121       0.111609
       0.810000       0.625188       0.650054       0.112138
       0.820000       0.643170       0.674310       0.112610
       0.830000       0.662694       0.698983       0.113064
       0.840000       0.684121       0.724115       0.113576
       0.850000       0.707753       0.749715       0.114228
       0.860000       0.733879       0.775786       0.115070
       0.870000       0.762825       0.802314       0.116099
       0.880000       0.794965       0.829210       0.117253
       0.890000       0.830721       0.856233       0.118424
       0.900000       0.870550       0.882963       0.119474
       0.910000       0.914925       0.908875       0.120256
       0.920000       0.964333       0.933519       0.120636
       0.930000       1.019265       0.956734       0.120496
       0.940000       1.080202       0.978788       0.119756
       0.950000       1.147597       1.000358       0.118386
       0.960000       1.221842       1.022350       0.116414
       0.970000       1.303236       1.045590       0.113931
       0.980000       1.391973       1.070506       0.111069
       0.990000       1.488171       1.096865       0.107981
       1.000000       1.591958       1.123661       0.104817
       1.010000       1.703637       1.149165       0.101711
       1.020000       1.823874       1.171143       0.098771
       1.030000       1.953870       1.187191       0.096074
       1.040000       2.095411       1.195143       0.093656
       1.050000       2.250770       1.193481       0.091509
       1.060000       2.422466       1.181688       0.089579
       1.070000       2.612933       1.160427       0.087780
       1.080000       2.824158       1.131478       0.086009
       1.090000       3.057300       1.097408       0.084180
       1.100000       3.312300       1.061096       0.082241
       1.110000       3.587475       1.025250       0.080193
       1.120000       3.879116       0.992073       0.078091
       1.130000       4.181165       0.963099       0.076023
       1.140000       4.485158       0.939192       0.074096
       1.150000       4.780636       0.920644       0.072410
       1.160000       5.056218       0.907328       0.071051
       1.170000       5.301242       0.898872       0.070086
       1.180000       5.507504       0.894821       0.069558
       1.190000       5.670408       0.894758       0.069493
       1.200000       5.789087       0.898373       0.069904
       1.210000       5.865666       0.905471       0.070785
       1.220000       5.904329       0.915956       0.072114
       1.230000       5.910704       0.929791       0.073850
       1.240000       5.891544       0.946947       0.075927
       1.250000       5.854218       0.967321       0.078248
       1.260000       5.805673       0.990607       0.080695
       1.270000       5.751057       1.016168       0.083128
       1.280000       5.692668       1.042958       0.085409
       1.290000       5.629847       1.069573       0.087416
       1.300000       5.560001       1.094472       0.089069
       1.310000       5.480323       1.116351       0.090343
       1.320000       5.389327       1.134545       0.091271
       1.330000       5.287384       1.149307       0.091938
       1.340000       5.175979       1.161830       0.092464
       1.350000       5.056185       1.174000       0.092975
       1.360000       4.927265       1.187986       0.093571
       1.370000       4.786231       1.205834       0.094306
       1.380000       4.628702       1.229150       0.095167
       1.390000       4.450726       1.258913       0.096081
       1.400000       4.250736       1.295374       0.096928
       1.410000       4.030720       1.337991       0.097575
       1.420000       3.796104       1.385409       0.097921
       1.430000       3.554516       1.435500       0.097926
       1.440000       3.314112       1.485516       0.097627
       1.450000       3.082129       1.532399       0.097126
       1.460000       2.864052       1.573200       0.096559
       1.470000       2.663370       1.605494       0.096048
       1.480000       2.481738       1.627678       0.095671
       1.490000       2.319309       1.639134       0.095438
       1.500000       2.175097       1.640274       0.095294
       1.510000       2.047283       1.632546       0.095126
       1.520000       1.933484       1.618352       0.094795
       1.530000       1.831016       1.600807       0.094170
       1.540000       1.737188       1.583347       0.093157
       1.550000       1.649619       1.569252       0.091715
       1.560000       1.566532       1.561232       0.089861
       1.570000       1.486912       1.561126       0.087656
       1.580000       1.410490       1.569743       0.085190
       1.590000       1.337543       1.586788       0.082568
       1.600000       1.268625       1.610882       0.079897
       1.610000       1.204316       1.639682       0.077278
       1.620000       1.145060       1.670178       0.074802
       1.630000       1.091101       1.699199       0.072549
       1.640000       1.042501       1.724089       0.070586
       1.650000       0.999183       1.743362       0.068966
       1.660000       0.960992       1.757085       0.067731
       1.670000       0.927740       1.766792       0.066908
       1.680000       0.899232       1.774960       0.066516
       1.690000       0.875286       1.784252       0.066565
       1.700000       0.855730       1.796821       0.067056
       1.710000       0.840399       1.813868       0.067985
       1.720000       0.829123       1.835532       0.069337
       1.730000       0.821708       1.861057       0.071083
       1.740000       0.817911       1.889132       0.073177
       1.750000       0.817416       1.918217       0.075547
       1.760000       0.819811       1.946735       0.078097
       1.770000       0.824583       1.973088       0.080709
       1.780000       0.831144       1.995619       0.083252
       1.790000       0.838902       2.012683       0.085603
       1.800000       0.847367       2.022945       0.087675
       1.810000       0.856257       2.025812       0.089432
       1.820000       0.865566       2.021797       0.090904
       1.830000       0.875568       2.012584       0.092175
       1.840000       0.886732       2.000741       0.093367
       1.850000       0.899597       1.989160       0.094607
       1.860000       0.914639       1.980423       0.096002
       1.870000       0.932152       1.976255       0.097621
       1.880000       0.952184       1.977203       0.099483
       1.890000       0.974532       1.982615       0.101567
       1.900000       0.998833       1.990913       0.103821
       1.910000       1.024707       2.000094       0.106182
       1.920000       1.051950       2.008288       0.108597
       1.930000       1.080673       2.014119       0.111038
       1.940000       1.111320       2.016719       0.113516
       1.950000       1.144549       2.015381       0.116080
       1.960000       1.180984       2.009075       0.118806
       1.970000       1.220959       1.996154       0.121774
       1.980000       1.264301       1.974464       0.125047
       1.990000       1.310239       1.941884       0.128650
       2.000000       1.357483       1.897064       0.132570
       2.010000       1.404468       1.840039       0.136763
       2.020000       1.449726       1.772437       0.141166
       2.030000       1.492276       1.697206       0.145708
       2.040000       1.531867       1.618022       0.150307
       2.050000       1.568964       1.538609       0.154856
       2.060000       1.604485       1.462201       0.159219
       2.070000       1.639393       1.391231       0.163223
       2.080000       1.674330       1.327254       0.166675
       2.090000       1.709436       1.271038       0.169379
       2.100000       1.744424       1.222752       0.171160
       2.110000       1.778865       1.182194       0.171886
       2.120000       1.812536       1.148997       0.171494
       2.130000       1.845646       1.122782       0.170007
       2.140000       1.878806       1.103207       0.167544
       2.150000       1.912788       1.089934       0.164299
       2.160000       1.948224       1.082523       0.160514
       2.170000       1.985417       1.080311       0.156430
       2.180000       2.024339       1.082319       0.152263
       2.190000       2.064749       1.087240       0.148182
       2.200000       2.106272       1.093526       0.144317
       2.210000       2.148387       1.099608       0.140772
       2.220000       2.190322       1.104192       0.137644
       2.230000       2.230959       1.106559       0.135031
       2.240000       2.268793       1.106733       0.133022
       2.250000       2.301940       1.105419       0.131692
       2.260000       2.328127       1.103738       0.131086
       2.270000       2.344713       1.102854       0.131208
       2.280000       2.348782       1.103628       0.132017
       2.290000       2.337390       1.106399       0.133436
       2.300000       2.307984       1.110898       0.135356
       2.310000       2.258905       1.116290       0.137657
       2.320000       2.189895       1.121288       0.140213
       2.330000       2.102409       1.124350       0.142905
       2.340000       1.999593       1.123938       0.145626
       2.350000       1.885872       1.118823       0.148284
       2.360000       1.766263       1.108378       0.150811
       2.370000       1.645630       1.092740       0.153173
       2.380000       1.528111       1.072772       0.155375
       2.390000       1.416814       1.049821       0.157462
       2.400000       1.313774       1.025350       0.159512
       2.410000       1.220087       1.000621       0.161619
       2.420000       1.136113       0.976507       0.163874
       2.430000       1.061684       0.953483       0.166339
       2.440000       0.996276       0.931744       0.169026
       2.450000       0.939127       0.911344       0.171886
       2.460000       0.889315       0.892281       0.174805
       2.470000       0.845791       0.874481       0.177611
       2.480000       0.807420       0.857743       0.180091
       2.490000       0.773018       0.841695       0.182011
       2.500000       0.741427       0.825838       0.183143
       2.510000       0.711618       0.809691       0.183298
       2.520000       0.682805       0.792976       0.182355
       2.530000       0.654529       0.775770       0.180296
       2.540000       0.626674       0.758540       0.177216
       2.550000       0.599413       0.742063       0.173317
       2.560000       0.573096       0.727261       0.168870
       2.570000       0.548133       0.715048       0.164168
       2.580000       0.524891       0.706203       0.159476
       2.590000       0.503650       0.701321       0.154994
       2.600000       0.484582       0.700792       0.150844
       2.610000       0.467764       0.704806       0.147073
       2.620000       0.453192       0.713354       0.143679
       2.630000       0.440805       0.726205       0.140625
       2.640000       0.430497       0.742878       0.137858
       2.650000       0.422124       0.762597       0.135318
       2.660000       0.415512       0.784282       0.132942
       2.670000       0.410461       0.806591       0.130673
       2.680000       0.406755       0.828067       0.128470
       2.690000       0.404183       0.847365       0.126319
       2.700000       0.402554       0.863528       0.124227
       2.710000       0.401705       0.876187       0.122230
       2.720000       0.401497       0.885580       0.120384
       2.730000       0.401784       0.892377       0.118759
       2.740000       0.402385       0.897365       0.117433
       2.750000       0.403054       0.901141       0.116489
       2.760000       0.403505       0.903937       0.115998
       2.770000       0.403458       0.905620       0.116013
       2.780000       0.402723       0.905875       0.116558
       2.790000       0.401278       0.904460       0.117628
       2.800000       0.399297       0.901450       0.119184
       2.810000       0.397135       0.897352       0.121153
       2.820000       0.395255       0.893074       0.123425
       2.830000       0.394153       0.889785       0.125862
       2.840000       0.394283       0.888748       0.128305
       2.850000       0.396019       0.891184       0.130606
       2.860000       0.399635       0.898199       0.132651
       2.870000       0.405300       0.910746       0.134389
       2.880000       0.413080       0.929619       0.135839
       2.890000       0.422936       0.955452       0.137087
       2.900000       0.434724       0.988712       0.138261
       2.910000       0.448202       1.029708       0.139494
       2.920000       0.463061       1.078596       0.140898
       2.930000       0.478975       1.135390       0.142532
       2.940000       0.495675       1.199961       0.144393
       2.950000       0.513009       1.272010       0.146417
       2.960000       0.530975       1.350952       0.148492
       2.970000       0.549678       1.435718       0.150483
       2.980000       0.569246       1.524452       0.152256
       2.990000       0.589710       1.614227       0.153699
       3.000000       0.610929       1.700874       0.154723
       3.010000       0.632554       1.779114       0.155252
       3.020000       0.654071       1.843071       0.155208
       3.030000       0.674894       1.887148       0.154510
       3.040000       0.694464       1.907088       0.153098
       3.050000       0.712328       1.900893       0.150953
       3.060000       0.728135       1.869271       0.148124
       3.070000       0.741572       1.815462       0.144729
       3.080000       0.752281       1.744494       0.140944
       3.090000       0.759807       1.662185       0.136971
       3.100000       0.763609       1.574193       0.133012
       3.110000       0.763111       1.485338       0.129240
       3.120000       0.757789       1.399267       0.125785
       3.130000       0.747262       1.318396       0.122718
       3.140000       0.731389       1.244050       0.120052
       3.150000       0.710369       1.176700       0.117753
       3.160000       0.684797       1.116220       0.115757
       3.170000       0.655645       1.062113       0.113995
       3.180000       0.624140       1.013683       0.112413
       3.190000       0.591574       0.970154       0.110992
       3.200000       0.559119       0.930768       0.109744
       3.210000       0.527683       0.894850       0.108711
       3.220000       0.497859       0.861846       0.107944
       3.230000       0.469953       0.831307       0.107492
       3.240000       0.444057       0.802851       0.107391
       3.250000       0.420141       0.776129       0.107659
       3.260000       0.398128       0.750830       0.108302
