  # energy grid [eV]     epsi_x  epsi_y  epsi_z
       0.000000            NaN            NaN            NaN
       0.010000       0.076836       0.000837       0.001706
       0.020000       0.154039       0.001675       0.003428
       0.030000       0.231983       0.002513       0.005180
       0.040000       0.311047       0.003353       0.006977
       0.050000       0.391625       0.004194       0.008837
       0.060000       0.474130       0.005037       0.010773
       0.070000       0.558995       0.005883       0.012802
       0.080000       0.646685       0.006732       0.014938
       0.090000       0.737697       0.007584       0.017192
       0.100000       0.832573       0.008440       0.019573
       0.110000       0.931901       0.009300       0.022085
       0.120000       1.036331       0.010165       0.024723
       0.130000       1.146581       0.011035       0.027476
       0.140000       1.263449       0.011910       0.030325
       0.150000       1.387826       0.012792       0.033248
       0.160000       1.520717       0.013680       0.036227
       0.170000       1.663252       0.014575       0.039261
       0.180000       1.816713       0.015478       0.042369
       0.190000       1.982556       0.016389       0.045599
       0.200000       2.162440       0.017309       0.049021
       0.210000       2.358262       0.018238       0.052721
       0.220000       2.572194       0.019177       0.056787
       0.230000       2.806729       0.020127       0.061299
       0.240000       3.064726       0.021087       0.066313
       0.250000       3.349470       0.022059       0.071856
       0.260000       3.664722       0.023044       0.077913
       0.270000       4.014786       0.024041       0.084414
       0.280000       4.404551       0.025053       0.091229
       0.290000       4.839531       0.026079       0.098165
       0.300000       5.325866       0.027120       0.104976
       0.310000       5.870258       0.028178       0.111389
       0.320000       6.479809       0.029253       0.117147
       0.330000       7.161688       0.030345       0.122053
       0.340000       7.922554       0.031457       0.126006
       0.350000       8.767626       0.032589       0.129009
       0.360000       9.699284       0.033741       0.131156
       0.370000      10.715145       0.034916       0.132590
       0.380000      11.805631       0.036114       0.133457
       0.390000      12.951299       0.037337       0.133874
       0.400000      14.120524       0.038585       0.133892
       0.410000      15.268453       0.039861       0.133495
       0.420000      16.338279       0.041165       0.132603
       0.430000      17.265506       0.042500       0.131108
       0.440000      17.985060       0.043866       0.128923
       0.450000      18.440177       0.045267       0.126024
       0.460000      18.591431       0.046703       0.122486
       0.470000      18.424100       0.048176       0.118477
       0.480000      17.951948       0.049690       0.114231
       0.490000      17.215752       0.051245       0.110002
       0.500000      16.276241       0.052845       0.106018
       0.510000      15.203324       0.054493       0.102455
       0.520000      14.065005       0.056190       0.099418
       0.530000      12.919129       0.057941       0.096945
       0.540000      11.809321       0.059749       0.095012
       0.550000      10.764652       0.061617       0.093545
       0.560000       9.801677       0.063549       0.092436
       0.570000       8.927411       0.065549       0.091553
       0.580000       8.142288       0.067623       0.090755
       0.590000       7.442622       0.069775       0.089913
       0.600000       6.822442       0.072010       0.088925
       0.610000       6.274755       0.074336       0.087726
       0.620000       5.792350       0.076758       0.086297
       0.630000       5.368278       0.079285       0.084659
       0.640000       4.996119       0.081923       0.082864
       0.650000       4.670092       0.084682       0.080984
       0.660000       4.385095       0.087573       0.079098
       0.670000       4.136685       0.090606       0.077283
       0.680000       3.921039       0.093793       0.075605
       0.690000       3.734901       0.097148       0.074113
       0.700000       3.575527       0.100688       0.072836
       0.710000       3.440633       0.104428       0.071770
       0.720000       3.328347       0.108390       0.070882
       0.730000       3.237167       0.112594       0.070116
       0.740000       3.165923       0.117065       0.069402
       0.750000       3.113745       0.121833       0.068677
       0.760000       3.080034       0.126929       0.067901
       0.770000       3.064434       0.132390       0.067070
       0.780000       3.066817       0.138257       0.066219
       0.790000       3.087264       0.144577       0.065407
       0.800000       3.126071       0.151403       0.064706
       0.810000       3.183759       0.158797       0.064175
       0.820000       3.261115       0.166825       0.063851
       0.830000       3.359229       0.175563       0.063743
       0.840000       3.479521       0.185092       0.063832
       0.850000       3.623699       0.195501       0.064084
       0.860000       3.793640       0.206878       0.064458
       0.870000       3.991149       0.219311       0.064921
       0.880000       4.217606       0.232872       0.065452
       0.890000       4.473500       0.247611       0.066034
       0.900000       4.757860       0.263530       0.066652
       0.910000       5.067645       0.280569       0.067283
       0.920000       5.397210       0.298574       0.067899
       0.930000       5.738072       0.317290       0.068473
       0.940000       6.079219       0.336348       0.068982
       0.950000       6.408151       0.355295       0.069411
       0.960000       6.712553       0.373638       0.069742
       0.970000       6.982207       0.390917       0.069945
       0.980000       7.210516       0.406782       0.069965
       0.990000       7.395172       0.421047       0.069732
       1.000000       7.537802       0.433727       0.069175
       1.010000       7.642824       0.445017       0.068251
       1.020000       7.715951       0.455244       0.066966
       1.030000       7.762929       0.464810       0.065383
       1.040000       7.788914       0.474139       0.063614
       1.050000       7.798487       0.483662       0.061794
       1.060000       7.795879       0.493817       0.060056
       1.070000       7.784892       0.505042       0.058515
       1.080000       7.768389       0.517767       0.057253
       1.090000       7.747771       0.532390       0.056317
       1.100000       7.722938       0.549266       0.055721
       1.110000       7.692872       0.568696       0.055446
       1.120000       7.656410       0.590929       0.055441
       1.130000       7.612590       0.616144       0.055630
       1.140000       7.560357       0.644406       0.055913
       1.150000       7.497959       0.675601       0.056182
       1.160000       7.422662       0.709378       0.056334
       1.170000       7.331043       0.745094       0.056299
       1.180000       7.219624       0.781833       0.056050
       1.190000       7.085349       0.818489       0.055613
       1.200000       6.925713       0.853955       0.055060
       1.210000       6.738768       0.887379       0.054490
       1.220000       6.523372       0.918403       0.054008
       1.230000       6.279687       0.947293       0.053710
       1.240000       6.009617       0.974848       0.053672
       1.250000       5.716876       1.002128       0.053943
       1.260000       5.406678       1.030084       0.054546
       1.270000       5.085255       1.059210       0.055475
       1.280000       4.759363       1.089352       0.056691
       1.290000       4.435776       1.119703       0.058125
       1.300000       4.120766       1.149029       0.059676
       1.310000       3.819621       1.176056       0.061216
       1.320000       3.536324       1.199918       0.062604
       1.330000       3.273446       1.220480       0.063705
       1.340000       3.032235       1.238400       0.064423
       1.350000       2.812855       1.254883       0.064718
       1.360000       2.614662       1.271249       0.064612
       1.370000       2.436487       1.288496       0.064185
       1.380000       2.276867       1.307026       0.063551
       1.390000       2.134219       1.326642       0.062827
       1.400000       2.006965       1.346775       0.062113
       1.410000       1.893609       1.366874       0.061481
       1.420000       1.792777       1.386769       0.060972
       1.430000       1.703240       1.406832       0.060603
       1.440000       1.623915       1.427867       0.060374
       1.450000       1.553868       1.450747       0.060273
       1.460000       1.492302       1.475979       0.060272
       1.470000       1.438545       1.503361       0.060332
       1.480000       1.392046       1.531887       0.060400
       1.490000       1.352359       1.559945       0.060420
       1.500000       1.319133       1.585787       0.060343
       1.510000       1.292107       1.608121       0.060137
       1.520000       1.271093       1.626601       0.059793
       1.530000       1.255965       1.641986       0.059325
       1.540000       1.246637       1.655908       0.058759
       1.550000       1.243044       1.670347       0.058133
       1.560000       1.245104       1.687068       0.057486
       1.570000       1.252688       1.707188       0.056860
       1.580000       1.265577       1.730991       0.056291
       1.590000       1.283435       1.757928       0.055808
       1.600000       1.305787       1.786714       0.055425
       1.610000       1.332034       1.815453       0.055144
       1.620000       1.361487       1.841814       0.054962
       1.630000       1.393427       1.863326       0.054874
       1.640000       1.427173       1.877847       0.054882
       1.650000       1.462148       1.884091       0.054997
       1.660000       1.497924       1.882033       0.055230
       1.670000       1.534252       1.872991       0.055585
       1.680000       1.571038       1.859320       0.056055
       1.690000       1.608282       1.843870       0.056618
       1.700000       1.646005       1.829375       0.057241
       1.710000       1.684186       1.817989       0.057891
       1.720000       1.722753       1.811017       0.058548
       1.730000       1.761597       1.808889       0.059208
       1.740000       1.800589       1.811301       0.059887
       1.750000       1.839598       1.817479       0.060611
       1.760000       1.878518       1.826499       0.061402
       1.770000       1.917321       1.837543       0.062273
       1.780000       1.956101       1.850020       0.063220
       1.790000       1.995046       1.863507       0.064222
       1.800000       2.034319       1.877587       0.065252
       1.810000       2.073909       1.891693       0.066276
       1.820000       2.113539       1.905053       0.067266
       1.830000       2.152648       1.916740       0.068197
       1.840000       2.190437       1.925802       0.069043
       1.850000       2.225886       1.931434       0.069778
       1.860000       2.257742       1.933181       0.070374
       1.870000       2.284471       1.931141       0.070804
       1.880000       2.304226       1.926078       0.071058
       1.890000       2.314845       1.919336       0.071144
       1.900000       2.313926       1.912558       0.071091
       1.910000       2.299031       1.907270       0.070949
       1.920000       2.268034       1.904520       0.070779
       1.930000       2.219597       1.904686       0.070640
       1.940000       2.153619       1.907484       0.070585
       1.950000       2.071511       1.912099       0.070644
       1.960000       1.976143       1.917316       0.070823
       1.970000       1.871438       1.921612       0.071105
       1.980000       1.761742       1.923236       0.071452
       1.990000       1.651187       1.920383       0.071817
       2.000000       1.543234       1.911491       0.072162
       2.010000       1.440455       1.895606       0.072463
       2.020000       1.344526       1.872648       0.072724
       2.030000       1.256356       1.843464       0.072982
       2.040000       1.176264       1.809629       0.073296
       2.050000       1.104160       1.773103       0.073742
       2.060000       1.039698       1.735870       0.074394
       2.070000       0.982381       1.699684       0.075305
       2.080000       0.931633       1.665914       0.076500
       2.090000       0.886827       1.635495       0.077964
       2.100000       0.847288       1.608942       0.079649
       2.110000       0.812292       1.586390       0.081471
       2.120000       0.781078       1.567639       0.083333
       2.130000       0.752879       1.552183       0.085135
       2.140000       0.726976       1.539251       0.086796
       2.150000       0.702771       1.527899       0.088269
       2.160000       0.679826       1.517167       0.089546
       2.170000       0.657879       1.506270       0.090660
       2.180000       0.636812       1.494713       0.091669
       2.190000       0.616612       1.482296       0.092643
       2.200000       0.597318       1.469008       0.093641
       2.210000       0.579010       1.454902       0.094701
       2.220000       0.561794       1.440005       0.095832
       2.230000       0.545805       1.424305       0.097014
       2.240000       0.531197       1.407815       0.098206
       2.250000       0.518128       1.390700       0.099351
       2.260000       0.506736       1.373425       0.100391
       2.270000       0.497130       1.356851       0.101271
       2.280000       0.489378       1.342199       0.101952
       2.290000       0.483501       1.330879       0.102422
       2.300000       0.479471       1.324237       0.102700
       2.310000       0.477199       1.323311       0.102844
       2.320000       0.476533       1.328657       0.102942
       2.330000       0.477239       1.340294       0.103096
       2.340000       0.479009       1.357745       0.103404
       2.350000       0.481470       1.380180       0.103936
       2.360000       0.484230       1.406608       0.104719
       2.370000       0.486938       1.436107       0.105733
       2.380000       0.489365       1.468021       0.106919
       2.390000       0.491469       1.502103       0.108197
       2.400000       0.493412       1.538554       0.109492
       2.410000       0.495533       1.577928       0.110750
       2.420000       0.498268       1.620882       0.111945
       2.430000       0.502060       1.667785       0.113071
       2.440000       0.507281       1.718252       0.114130
       2.450000       0.514171       1.770718       0.115114
       2.460000       0.522815       1.822202       0.116001
       2.470000       0.533147       1.868399       0.116754
       2.480000       0.544985       1.904213       0.117330
       2.490000       0.558078       1.924694       0.117703
       2.500000       0.572172       1.926175       0.117870
       2.510000       0.587053       1.907189       0.117860
       2.520000       0.602549       1.868805       0.117729
       2.530000       0.618497       1.814214       0.117543
       2.540000       0.634688       1.747792       0.117362
       2.550000       0.650835       1.674072       0.117226
       2.560000       0.666584       1.597001       0.117152
       2.570000       0.681560       1.519634       0.117132
       2.580000       0.695418       1.444202       0.117145
       2.590000       0.707867       1.372328       0.117168
       2.600000       0.718644       1.305233       0.117178
       2.610000       0.727458       1.243824       0.117166
       2.620000       0.733935       1.188695       0.117129
       2.630000       0.737595       1.140083       0.117068
       2.640000       0.737873       1.097846       0.116982
       2.650000       0.734189       1.061477       0.116873
       2.660000       0.726060       1.030178       0.116747
       2.670000       0.713234       1.002986       0.116621
       2.680000       0.695828       0.978925       0.116522
       2.690000       0.674392       0.957173       0.116492
       2.700000       0.649867       0.937186       0.116582
       2.710000       0.623448       0.918752       0.116853
       2.720000       0.596377       0.901966       0.117370
       2.730000       0.569763       0.887138       0.118194
       2.740000       0.544446       0.874652       0.119370
       2.750000       0.520953       0.864824       0.120915
       2.760000       0.499508       0.857778       0.122808
       2.770000       0.480084       0.853379       0.124990
       2.780000       0.462486       0.851228       0.127365
       2.790000       0.446441       0.850749       0.129807
       2.800000       0.431678       0.851314       0.132169
       2.810000       0.417993       0.852410       0.134288
       2.820000       0.405288       0.853750       0.136007
       2.830000       0.393559       0.855307       0.137186
       2.840000       0.382874       0.857240       0.137737
       2.850000       0.373331       0.859748       0.137637
       2.860000       0.365021       0.862937       0.136940
       2.870000       0.358004       0.866735       0.135767
       2.880000       0.352299       0.870888       0.134283
       2.890000       0.347877       0.875011       0.132664
       2.900000       0.344666       0.878648       0.131064
       2.910000       0.342550       0.881327       0.129590
       2.920000       0.341366       0.882602       0.128297
       2.930000       0.340914       0.882127       0.127189
       2.940000       0.340963       0.879746       0.126237
       2.950000       0.341276       0.875579       0.125398
       2.960000       0.341638       0.870049       0.124639
       2.970000       0.341891       0.863846       0.123951
       2.980000       0.341950       0.857818       0.123357
       2.990000       0.341813       0.852853       0.122910
       3.000000       0.341547       0.849775       0.122668
       3.010000       0.341265       0.849303       0.122683
       3.020000       0.341107       0.852041       0.122977
       3.030000       0.341228       0.858512       0.123539
       3.040000       0.341791       0.869177       0.124328
       3.050000       0.342961       0.884438       0.125281
       3.060000       0.344898       0.904620       0.126327
       3.070000       0.347748       0.929940       0.127398
       3.080000       0.351635       0.960483       0.128436
       3.090000       0.356659       0.996186       0.129391
       3.100000       0.362893       1.036845       0.130214
       3.110000       0.370392       1.082109       0.130848
       3.120000       0.379189       1.131486       0.131220
       3.130000       0.389299       1.184334       0.131250
       3.140000       0.400728       1.239854       0.130865
       3.150000       0.413471       1.297104       0.130019
       3.160000       0.427531       1.355024       0.128713
       3.170000       0.442924       1.412464       0.127007
       3.180000       0.459707       1.468187       0.125018
       3.190000       0.477984       1.520860       0.122904
       3.200000       0.497920       1.569055       0.120836
       3.210000       0.519723       1.611292       0.118972
       3.220000       0.543622       1.646180       0.117429
       3.230000       0.569828       1.672629       0.116273
       3.240000       0.598479       1.690095       0.115508
       3.250000       0.629597       1.698751       0.115082
       3.260000       0.663039       1.699501       0.114896
