  # energy grid [eV]     epsi_x  epsi_y  epsi_z
       0.000000            NaN            NaN            NaN
       0.010000       0.010719       0.011893       0.002420
       0.020000       0.021520       0.023924       0.004862
       0.030000       0.032480       0.036219       0.007351
       0.040000       0.043655       0.048891       0.009911
       0.050000       0.055077       0.062020       0.012567
       0.060000       0.066727       0.075639       0.015346
       0.070000       0.078520       0.089710       0.018279
       0.080000       0.090281       0.104097       0.021398
       0.090000       0.101728       0.118547       0.024739
       0.100000       0.112478       0.132680       0.028342
       0.110000       0.122075       0.146002       0.032248
       0.120000       0.130065       0.157956       0.036505
       0.130000       0.136085       0.168003       0.041161
       0.140000       0.139962       0.175720       0.046266
       0.150000       0.141762       0.180876       0.051868
       0.160000       0.141774       0.183482       0.058006
       0.170000       0.140444       0.183788       0.064704
       0.180000       0.138267       0.182246       0.071958
       0.190000       0.135710       0.179443       0.079725
       0.200000       0.133153       0.176017       0.087906
       0.210000       0.130870       0.172582       0.096332
       0.220000       0.129038       0.169663       0.104766
       0.230000       0.127758       0.167663       0.112915
       0.240000       0.127070       0.166851       0.120463
       0.250000       0.126979       0.167360       0.127124
       0.260000       0.127466       0.169192       0.132693
       0.270000       0.128501       0.172217       0.137075
       0.280000       0.130049       0.176162       0.140279
       0.290000       0.132075       0.180611       0.142387
       0.300000       0.134545       0.185008       0.143507
       0.310000       0.137431       0.188702       0.143746
       0.320000       0.140708       0.191030       0.143200
       0.330000       0.144355       0.191435       0.141969
       0.340000       0.148355       0.189588       0.140160
       0.350000       0.152698       0.185463       0.137902
       0.360000       0.157373       0.179331       0.135330
       0.370000       0.162377       0.171681       0.132577
       0.380000       0.167708       0.163092       0.129746
       0.390000       0.173367       0.154124       0.126893
       0.400000       0.179358       0.145240       0.124026
       0.410000       0.185688       0.136777       0.121111
       0.420000       0.192366       0.128949       0.118107
       0.430000       0.199404       0.121869       0.115001
       0.440000       0.206817       0.115578       0.111839
       0.450000       0.214622       0.110066       0.108723
       0.460000       0.222839       0.105294       0.105798
       0.470000       0.231489       0.101210       0.103217
       0.480000       0.240598       0.097752       0.101109
       0.490000       0.250195       0.094860       0.099558
       0.500000       0.260311       0.092477       0.098593
       0.510000       0.270981       0.090551       0.098190
       0.520000       0.282246       0.089034       0.098274
       0.530000       0.294147       0.087887       0.098737
       0.540000       0.306735       0.087072       0.099447
       0.550000       0.320063       0.086559       0.100263
       0.560000       0.334190       0.086322       0.101053
       0.570000       0.349184       0.086339       0.101704
       0.580000       0.365118       0.086591       0.102133
       0.590000       0.382075       0.087062       0.102294
       0.600000       0.400147       0.087741       0.102179
       0.610000       0.419438       0.088618       0.101823
       0.620000       0.440062       0.089683       0.101290
       0.630000       0.462147       0.090933       0.100658
       0.640000       0.485838       0.092364       0.099998
       0.650000       0.511293       0.093973       0.099346
       0.660000       0.538692       0.095760       0.098699
       0.670000       0.568229       0.097728       0.098011
       0.680000       0.600120       0.099879       0.097219
       0.690000       0.634599       0.102218       0.096271
       0.700000       0.671914       0.104752       0.095147
       0.710000       0.712323       0.107489       0.093865
       0.720000       0.756086       0.110440       0.092469
       0.730000       0.803454       0.113616       0.091012
       0.740000       0.854662       0.117032       0.089540
       0.750000       0.909918       0.120706       0.088089
       0.760000       0.969418       0.124656       0.086697
       0.770000       1.033370       0.128907       0.085404
       0.780000       1.102065       0.133484       0.084264
       0.790000       1.175954       0.138417       0.083330
       0.800000       1.255737       0.143742       0.082643
       0.810000       1.342427       0.149498       0.082216
       0.820000       1.437354       0.155731       0.082022
       0.830000       1.542136       0.162492       0.082000
       0.840000       1.658609       0.169841       0.082061
       0.850000       1.788768       0.177844       0.082107
       0.860000       1.934717       0.186574       0.082050
       0.870000       2.098617       0.196113       0.081828
       0.880000       2.282633       0.206548       0.081419
       0.890000       2.488823       0.217968       0.080835
       0.900000       2.718966       0.230462       0.080117
       0.910000       2.974267       0.244108       0.079317
       0.920000       3.254948       0.258961       0.078483
       0.930000       3.559705       0.275039       0.077641
       0.940000       3.885091       0.292297       0.076788
       0.950000       4.224971       0.310612       0.075896
       0.960000       4.570273       0.329762       0.074928
       0.970000       4.909321       0.349426       0.073858
       0.980000       5.228937       0.369203       0.072689
       0.990000       5.516224       0.388656       0.071462
       1.000000       5.760551       0.407373       0.070243
       1.010000       5.955110       0.425034       0.069107
       1.020000       6.097567       0.441455       0.068114
       1.030000       6.189785       0.456628       0.067296
       1.040000       6.236891       0.470722       0.066652
       1.050000       6.245920       0.484071       0.066150
       1.060000       6.224229       0.497123       0.065739
       1.070000       6.177977       0.510374       0.065368
       1.080000       6.111174       0.524306       0.064999
       1.090000       6.025695       0.539358       0.064620
       1.100000       5.922192       0.555932       0.064249
       1.110000       5.801242       0.574413       0.063925
       1.120000       5.663931       0.595178       0.063695
       1.130000       5.511510       0.618575       0.063595
       1.140000       5.344478       0.644863       0.063637
       1.150000       5.161931       0.674138       0.063805
       1.160000       4.961856       0.706272       0.064059
       1.170000       4.742403       0.740854       0.064342
       1.180000       4.503521       0.777174       0.064600
       1.190000       4.248041       0.814247       0.064800
       1.200000       3.981645       0.850918       0.064939
       1.210000       3.711789       0.886058       0.065047
       1.220000       3.446196       0.918843       0.065178
       1.230000       3.191550       0.949027       0.065396
       1.240000       2.952747       0.977089       0.065750
       1.250000       2.732725       1.004163       0.066264
       1.260000       2.532667       1.031764       0.066919
       1.270000       2.352401       1.061402       0.067662
       1.280000       2.190831       1.094206       0.068408
       1.290000       2.046353       1.130643       0.069060
       1.300000       1.917197       1.170388       0.069535
       1.310000       1.801691       1.212344       0.069784
       1.320000       1.698432       1.254835       0.069814
       1.330000       1.606327       1.295957       0.069680
       1.340000       1.524550       1.334000       0.069476
       1.350000       1.452444       1.367792       0.069310
       1.360000       1.389403       1.396844       0.069278
       1.370000       1.334775       1.421209       0.069444
       1.380000       1.287787       1.441202       0.069828
       1.390000       1.247493       1.457163       0.070403
       1.400000       1.212753       1.469439       0.071099
       1.410000       1.182249       1.478570       0.071822
       1.420000       1.154573       1.485529       0.072469
       1.430000       1.128377       1.491811       0.072958
       1.440000       1.102580       1.499262       0.073239
       1.450000       1.076552       1.509700       0.073302
       1.460000       1.050215       1.524453       0.073169
       1.470000       1.023995       1.544002       0.072879
       1.480000       0.998667       1.567788       0.072475
       1.490000       0.975147       1.594277       0.072000
       1.500000       0.954319       1.621288       0.071491
       1.510000       0.936928       1.646562       0.070987
       1.520000       0.923550       1.668438       0.070517
       1.530000       0.914604       1.686425       0.070102
       1.540000       0.910389       1.701425       0.069744
       1.550000       0.911118       1.715503       0.069429
       1.560000       0.916946       1.731283       0.069127
       1.570000       0.927975       1.751222       0.068801
       1.580000       0.944248       1.776940       0.068419
       1.590000       0.965719       1.808767       0.067966
       1.600000       0.992219       1.845527       0.067457
       1.610000       1.023414       1.884586       0.066939
       1.620000       1.058772       1.922205       0.066478
       1.630000       1.097573       1.954198       0.066153
       1.640000       1.138951       1.976819       0.066031
       1.650000       1.181991       1.987631       0.066155
       1.660000       1.225855       1.986083       0.066542
       1.670000       1.269900       1.973562       0.067172
       1.680000       1.313767       1.952969       0.067996
       1.690000       1.357412       1.928034       0.068946
       1.700000       1.401061       1.902649       0.069945
       1.710000       1.445098       1.880358       0.070924
       1.720000       1.489903       1.864027       0.071839
       1.730000       1.535711       1.855660       0.072670
       1.740000       1.582556       1.856309       0.073427
       1.750000       1.630336       1.866053       0.074135
       1.760000       1.678923       1.884039       0.074825
       1.770000       1.728240       1.908565       0.075525
       1.780000       1.778241       1.937250       0.076247
       1.790000       1.828805       1.967326       0.076989
       1.800000       1.879637       1.996061       0.077744
       1.810000       1.930267       2.021196       0.078505
       1.820000       1.980120       2.041248       0.079283
       1.830000       2.028641       2.055504       0.080107
       1.840000       2.075365       2.063757       0.081014
       1.850000       2.119946       2.065962       0.082042
       1.860000       2.162167       2.062075       0.083210
       1.870000       2.201966       2.052163       0.084512
       1.880000       2.239439       2.036698       0.085921
       1.890000       2.274777       2.016765       0.087390
       1.900000       2.308080       1.994026       0.088871
       1.910000       2.339130       1.970420       0.090323
       1.920000       2.367207       1.947785       0.091723
       1.930000       2.390999       1.927583       0.093066
       1.940000       2.408608       1.910789       0.094361
       1.950000       2.417615       1.897878       0.095626
       1.960000       2.415242       1.888805       0.096875
       1.970000       2.398634       1.882941       0.098115
       1.980000       2.365295       1.879023       0.099341
       1.990000       2.313611       1.875238       0.100535
       2.000000       2.243337       1.869479       0.101668
       2.010000       2.155870       1.859729       0.102710
       2.020000       2.054165       1.844435       0.103629
       2.030000       1.942290       1.822784       0.104402
       2.040000       1.824752       1.794806       0.105023
       2.050000       1.705850       1.761353       0.105510
       2.060000       1.589201       1.723936       0.105915
       2.070000       1.477531       1.684467       0.106312
       2.080000       1.372673       1.644959       0.106794
       2.090000       1.275692       1.607272       0.107452
       2.100000       1.187065       1.572965       0.108357
       2.110000       1.106853       1.543246       0.109548
       2.120000       1.034847       1.518922       0.111029
       2.130000       0.970676       1.500318       0.112771
       2.140000       0.913868       1.487161       0.114727
       2.150000       0.863892       1.478497       0.116837
       2.160000       0.820185       1.472736       0.119037
       2.170000       0.782163       1.467884       0.121257
       2.180000       0.749241       1.461933       0.123421
       2.190000       0.720832       1.453304       0.125446
       2.200000       0.696344       1.441155       0.127253
       2.210000       0.675169       1.425411       0.128776
       2.220000       0.656663       1.406514       0.129973
       2.230000       0.640147       1.385024       0.130829
       2.240000       0.624928       1.361275       0.131356
       2.250000       0.610366       1.335244       0.131582
       2.260000       0.595959       1.306627       0.131543
       2.270000       0.581424       1.275088       0.131275
       2.280000       0.566740       1.240546       0.130819
       2.290000       0.552128       1.203395       0.130217
       2.300000       0.537978       1.164594       0.129511
       2.310000       0.524751       1.125574       0.128732
       2.320000       0.512892       1.088007       0.127895
       2.330000       0.502767       1.053543       0.126999
       2.340000       0.494640       1.023572       0.126029
       2.350000       0.488663       0.999085       0.124972
       2.360000       0.484881       0.980612       0.123824
       2.370000       0.483238       0.968211       0.122601
       2.380000       0.483577       0.961486       0.121335
       2.390000       0.485649       0.959607       0.120074
       2.400000       0.489125       0.961362       0.118874
       2.410000       0.493630       0.965255       0.117794
       2.420000       0.498801       0.969675       0.116897
       2.430000       0.504357       0.973118       0.116249
       2.440000       0.510160       0.974436       0.115911
       2.450000       0.516237       0.973029       0.115943
       2.460000       0.522758       0.968916       0.116393
       2.470000       0.529966       0.962674       0.117291
       2.480000       0.538104       0.955243       0.118640
       2.490000       0.547346       0.947668       0.120409
       2.500000       0.557749       0.940847       0.122536
       2.510000       0.569229       0.935348       0.124934
       2.520000       0.581581       0.931326       0.127505
       2.530000       0.594522       0.928536       0.130151
       2.540000       0.607778       0.926429       0.132790
       2.550000       0.621179       0.924312       0.135351
       2.560000       0.634713       0.921520       0.137781
       2.570000       0.648518       0.917541       0.140036
       2.580000       0.662797       0.912043       0.142078
       2.590000       0.677702       0.904797       0.143870
       2.600000       0.693238       0.895565       0.145372
       2.610000       0.709233       0.884048       0.146536
       2.620000       0.725379       0.869944       0.147302
       2.630000       0.741294       0.853119       0.147604
       2.640000       0.756572       0.833769       0.147369
       2.650000       0.770773       0.812499       0.146529
       2.660000       0.783360       0.790258       0.145038
       2.670000       0.793636       0.768157       0.142885
       2.680000       0.800722       0.747259       0.140111
       2.690000       0.803615       0.728412       0.136812
       2.700000       0.801331       0.712158       0.133124
       2.710000       0.793094       0.698719       0.129209
       2.720000       0.778548       0.688023       0.125227
       2.730000       0.757898       0.679771       0.121325
       2.740000       0.731932       0.673508       0.117621
       2.750000       0.701906       0.668721       0.114211
       2.760000       0.669319       0.664934       0.111160
       2.770000       0.635670       0.661787       0.108509
       2.780000       0.602273       0.659076       0.106274
       2.790000       0.570150       0.656739       0.104447
       2.800000       0.540007       0.654805       0.103003
       2.810000       0.512259       0.653338       0.101908
       2.820000       0.487083       0.652414       0.101127
       2.830000       0.464468       0.652101       0.100628
       2.840000       0.444279       0.652451       0.100384
       2.850000       0.426305       0.653486       0.100373
       2.860000       0.410312       0.655170       0.100581
       2.870000       0.396078       0.657402       0.101007
       2.880000       0.383421       0.660044       0.101658
       2.890000       0.372193       0.662968       0.102551
       2.900000       0.362267       0.666121       0.103698
       2.910000       0.353519       0.669551       0.105101
       2.920000       0.345812       0.673383       0.106741
       2.930000       0.338991       0.677738       0.108583
       2.940000       0.332890       0.682641       0.110584
       2.950000       0.327354       0.687952       0.112714
       2.960000       0.322253       0.693362       0.114965
       2.970000       0.317500       0.698457       0.117356
       2.980000       0.313057       0.702805       0.119922
       2.990000       0.308930       0.706032       0.122690
       3.000000       0.305150       0.707850       0.125644
       3.010000       0.301752       0.708056       0.128706
       3.020000       0.298751       0.706511       0.131724
       3.030000       0.296137       0.703161       0.134483
       3.040000       0.293880       0.698064       0.136740
       3.050000       0.291946       0.691421       0.138258
       3.060000       0.290317       0.683565       0.138859
       3.070000       0.288993       0.674919       0.138448
       3.080000       0.287991       0.665937       0.137026
       3.090000       0.287335       0.657072       0.134684
       3.100000       0.287046       0.648769       0.131582
       3.110000       0.287133       0.641482       0.127924
       3.120000       0.287600       0.635683       0.123934
       3.130000       0.288437       0.631861       0.119829
       3.140000       0.289630       0.630494       0.115805
       3.150000       0.291160       0.632018       0.112022
       3.160000       0.293016       0.636804       0.108609
       3.170000       0.295205       0.645141       0.105657
       3.180000       0.297761       0.657231       0.103226
       3.190000       0.300738       0.673182       0.101346
       3.200000       0.304191       0.692998       0.100016
       3.210000       0.308154       0.716572       0.099205
       3.220000       0.312613       0.743684       0.098859
       3.230000       0.317500       0.774032       0.098902
       3.240000       0.322703       0.807288       0.099237
       3.250000       0.328095       0.843187       0.099759
       3.260000       0.333566       0.881605       0.100349
