  # energy grid [eV]     epsi_x  epsi_y  epsi_z
       0.000000            NaN            NaN            NaN
       0.010000       0.003998       0.006800       0.133156
       0.020000       0.008013       0.013670       0.234073
       0.030000       0.012063       0.020682       0.297550
       0.040000       0.016165       0.027910       0.335874
       0.050000       0.020336       0.035433       0.361995
       0.060000       0.024595       0.043336       0.384068
       0.070000       0.028959       0.051709       0.406141
       0.080000       0.033445       0.060652       0.429707
       0.090000       0.038067       0.070273       0.454753
       0.100000       0.042837       0.080688       0.480348
       0.110000       0.047763       0.092020       0.505039
       0.120000       0.052844       0.104395       0.527208
       0.130000       0.058076       0.117933       0.545444
       0.140000       0.063446       0.132739       0.558881
       0.150000       0.068940       0.148878       0.567383
       0.160000       0.074546       0.166348       0.571485
       0.170000       0.080258       0.185034       0.572121
       0.180000       0.086082       0.204662       0.570236
       0.190000       0.092032       0.224739       0.566460
       0.200000       0.098127       0.244515       0.560940
       0.210000       0.104378       0.262977       0.553382
       0.220000       0.110796       0.278928       0.543247
       0.230000       0.117386       0.291149       0.530030
       0.240000       0.124168       0.298638       0.513495
       0.250000       0.131187       0.300856       0.493794
       0.260000       0.138524       0.297874       0.471447
       0.270000       0.146297       0.290359       0.447216
       0.280000       0.154650       0.279402       0.421949
       0.290000       0.163742       0.266265       0.396444
       0.300000       0.173727       0.252153       0.371382
       0.310000       0.184739       0.238065       0.347314
       0.320000       0.196880       0.224731       0.324673
       0.330000       0.210199       0.212626       0.303795
       0.340000       0.224673       0.202003       0.284929
       0.350000       0.240176       0.192952       0.268239
       0.360000       0.256442       0.185441       0.253796
       0.370000       0.273039       0.179351       0.241591
       0.380000       0.289352       0.174504       0.231535
       0.390000       0.304617       0.170686       0.223472
       0.400000       0.318010       0.167671       0.217189
       0.410000       0.328794       0.165256       0.212436
       0.420000       0.336494       0.163284       0.208942
       0.430000       0.341030       0.161672       0.206443
       0.440000       0.342746       0.160414       0.204712
       0.450000       0.342333       0.159563       0.203569
       0.460000       0.340662       0.159208       0.202883
       0.470000       0.338617       0.159441       0.202549
       0.480000       0.336965       0.160336       0.202448
       0.490000       0.336292       0.161931       0.202420
       0.500000       0.336994       0.164227       0.202245
       0.510000       0.339301       0.167189       0.201667
       0.520000       0.343315       0.170753       0.200449
       0.530000       0.349054       0.174843       0.198437
       0.540000       0.356482       0.179385       0.195616
       0.550000       0.365523       0.184318       0.192116
       0.560000       0.376048       0.189602       0.188175
       0.570000       0.387849       0.195223       0.184062
       0.580000       0.400597       0.201194       0.180000
       0.590000       0.413814       0.207554       0.176104
       0.600000       0.426888       0.214367       0.172354
       0.610000       0.439135       0.221717       0.168600
       0.620000       0.449918       0.229711       0.164608
       0.630000       0.458802       0.238464       0.160124
       0.640000       0.465669       0.248101       0.154949
       0.650000       0.470764       0.258741       0.148997
       0.660000       0.474629       0.270470       0.142321
       0.670000       0.477973       0.283307       0.135095
       0.680000       0.481517       0.297175       0.127571
       0.690000       0.485886       0.311879       0.120019
       0.700000       0.491554       0.327108       0.112683
       0.710000       0.498843       0.342477       0.105753
       0.720000       0.507965       0.357590       0.099358
       0.730000       0.519065       0.372128       0.093571
       0.740000       0.532260       0.385927       0.088423
       0.750000       0.547644       0.399011       0.083913
       0.760000       0.565269       0.411590       0.080024
       0.770000       0.585096       0.424007       0.076728
       0.780000       0.606934       0.436660       0.073994
       0.790000       0.630396       0.449906       0.071792
       0.800000       0.654866       0.463975       0.070092
       0.810000       0.679524       0.478924       0.068867
       0.820000       0.703440       0.494634       0.068089
       0.830000       0.725732       0.510857       0.067731
       0.840000       0.745774       0.527282       0.067763
       0.850000       0.763356       0.543565       0.068148
       0.860000       0.778758       0.559320       0.068845
       0.870000       0.792683       0.574045       0.069808
       0.880000       0.806094       0.587074       0.070992
       0.890000       0.820032       0.597593       0.072359
       0.900000       0.835483       0.604771       0.073882
       0.910000       0.853313       0.607971       0.075542
       0.920000       0.874262       0.606960       0.077324
       0.930000       0.898975       0.602038       0.079197
       0.940000       0.928028       0.594017       0.081104
       0.950000       0.961962       0.584073       0.082956
       0.960000       1.001300       0.573522       0.084634
       0.970000       1.046566       0.563599       0.086018
       0.980000       1.098308       0.555279       0.087016
       0.990000       1.157111       0.549174       0.087593
       1.000000       1.223611       0.545495       0.087790
       1.010000       1.298495       0.544056       0.087714
       1.020000       1.382503       0.544317       0.087506
       1.030000       1.476415       0.545478       0.087310
       1.040000       1.581032       0.546626       0.087233
       1.050000       1.697166       0.546930       0.087330
       1.060000       1.825637       0.545841       0.087596
       1.070000       1.967305       0.543238       0.087974
       1.080000       2.123127       0.539454       0.088372
       1.090000       2.294243       0.535182       0.088684
       1.100000       2.482018       0.531299       0.088813
       1.110000       2.687976       0.528693       0.088683
       1.120000       2.913546       0.528127       0.088258
       1.130000       3.159610       0.530172       0.087541
       1.140000       3.425879       0.535185       0.086585
       1.150000       3.710214       0.543310       0.085483
       1.160000       4.008042       0.554499       0.084360
       1.170000       4.312085       0.568528       0.083352
       1.180000       4.612646       0.585033       0.082585
       1.190000       4.898606       0.603558       0.082156
       1.200000       5.159015       0.623627       0.082121
       1.210000       5.384878       0.644826       0.082490
       1.220000       5.570501       0.666865       0.083231
       1.230000       5.714033       0.689626       0.084271
       1.240000       5.817234       0.713159       0.085511
       1.250000       5.884794       0.737666       0.086836
       1.260000       5.923412       0.763439       0.088140
       1.270000       5.940610       0.790763       0.089333
       1.280000       5.943332       0.819778       0.090343
       1.290000       5.936642       0.850324       0.091117
       1.300000       5.923101       0.881827       0.091609
       1.310000       5.903162       0.913272       0.091785
       1.320000       5.876417       0.943314       0.091635
       1.330000       5.842987       0.970536       0.091188
       1.340000       5.804215       0.993804       0.090525
       1.350000       5.762247       1.012617       0.089770
       1.360000       5.718787       1.027322       0.089073
       1.370000       5.673835       1.039098       0.088579
       1.380000       5.625178       1.049712       0.088414
       1.390000       5.568960       1.061159       0.088661
       1.400000       5.500999       1.075293       0.089365
       1.410000       5.418054       1.093551       0.090527
       1.420000       5.318309       1.116769       0.092113
       1.430000       5.200862       1.145077       0.094053
       1.440000       5.064722       1.177850       0.096237
       1.450000       4.908159       1.213733       0.098508
       1.460000       4.729011       1.250796       0.100666
       1.470000       4.525890       1.286831       0.102474
       1.480000       4.299598       1.319782       0.103694
       1.490000       4.053916       1.348187       0.104136
       1.500000       3.795299       1.371439       0.103707
       1.510000       3.531673       1.389744       0.102435
       1.520000       3.270928       1.403771       0.100468
       1.530000       3.019721       1.414185       0.098028
       1.540000       2.782854       1.421291       0.095362
       1.550000       2.563200       1.424985       0.092689
       1.560000       2.361987       1.425023       0.090171
       1.570000       2.179221       1.421463       0.087901
       1.580000       2.014119       1.415045       0.085907
       1.590000       1.865473       1.407307       0.084175
       1.600000       1.731900       1.400384       0.082665
       1.610000       1.612008       1.396590       0.081331
       1.620000       1.504473       1.397971       0.080138
       1.630000       1.408074       1.405922       0.079058
       1.640000       1.321692       1.420957       0.078064
       1.650000       1.244311       1.442583       0.077132
       1.660000       1.175011       1.469295       0.076230
       1.670000       1.112962       1.498722       0.075334
       1.680000       1.057425       1.527948       0.074437
       1.690000       1.007745       1.554057       0.073561
       1.700000       0.963359       1.574810       0.072755
       1.710000       0.923787       1.589252       0.072088
       1.720000       0.888632       1.598008       0.071635
       1.730000       0.857574       1.603126       0.071459
       1.740000       0.830355       1.607530       0.071606
       1.750000       0.806769       1.614301       0.072087
       1.760000       0.786650       1.626027       0.072888
       1.770000       0.769861       1.644348       0.073960
       1.780000       0.756278       1.669737       0.075231
       1.790000       0.745782       1.701475       0.076612
       1.800000       0.738236       1.737794       0.078006
       1.810000       0.733468       1.776178       0.079322
       1.820000       0.731245       1.813765       0.080484
       1.830000       0.731257       1.847778       0.081428
       1.840000       0.733110       1.875878       0.082113
       1.850000       0.736348       1.896384       0.082522
       1.860000       0.740520       1.908376       0.082673
       1.870000       0.745262       1.911771       0.082624
       1.880000       0.750404       1.907417       0.082475
       1.890000       0.756038       1.897158       0.082355
       1.900000       0.762512       1.883743       0.082400
       1.910000       0.770365       1.870500       0.082735
       1.920000       0.780203       1.860828       0.083460
       1.930000       0.792569       1.857637       0.084637
       1.940000       0.807838       1.862888       0.086287
       1.950000       0.826142       1.877294       0.088386
       1.960000       0.847333       1.900206       0.090862
       1.970000       0.870992       1.929669       0.093599
       1.980000       0.896480       1.962679       0.096439
       1.990000       0.923040       1.995621       0.099205
       2.000000       0.949930       2.024854       0.101724
       2.010000       0.976545       2.047274       0.103853
       2.020000       1.002494       2.060714       0.105509
       2.030000       1.027613       2.064032       0.106675
       2.040000       1.051933       2.056928       0.107404
       2.050000       1.075629       2.039609       0.107796
       2.060000       1.098958       2.012472       0.107989
       2.070000       1.122201       1.975962       0.108124
       2.080000       1.145589       1.930662       0.108322
       2.090000       1.169279       1.877554       0.108661
       2.100000       1.193394       1.818272       0.109159
       2.110000       1.218123       1.755157       0.109778
       2.120000       1.243819       1.691073       0.110436
       2.130000       1.271002       1.629049       0.111037
       2.140000       1.300233       1.571906       0.111507
       2.150000       1.331916       1.521978       0.111819
       2.160000       1.366112       1.480990       0.112002
       2.170000       1.402483       1.450063       0.112134
       2.180000       1.440378       1.429814       0.112318
       2.190000       1.479045       1.420483       0.112647
       2.200000       1.517863       1.422068       0.113183
       2.210000       1.556498       1.434407       0.113929
       2.220000       1.594913       1.457206       0.114840
       2.230000       1.633259       1.489998       0.115828
       2.240000       1.671720       1.532019       0.116793
       2.250000       1.710412       1.582033       0.117655
       2.260000       1.749380       1.638110       0.118378
       2.270000       1.788642       1.697444       0.118977
       2.280000       1.828200       1.756284       0.119513
       2.290000       1.867967       1.810113       0.120069
       2.300000       1.907621       1.854122       0.120728
       2.310000       1.946462       1.883979       0.121555
       2.320000       1.983349       1.896703       0.122589
       2.330000       2.016734       1.891385       0.123851
       2.340000       2.044712       1.869433       0.125346
       2.350000       2.065074       1.834247       0.127070
       2.360000       2.075382       1.790381       0.129007
       2.370000       2.073120       1.742533       0.131129
       2.380000       2.055968       1.694637       0.133400
       2.390000       2.022193       1.649286       0.135778
       2.400000       1.971086       1.607532       0.138218
       2.410000       1.903304       1.569004       0.140678
       2.420000       1.820975       1.532291       0.143109
       2.430000       1.727471       1.495497       0.145465
       2.440000       1.626899       1.456825       0.147702
       2.450000       1.523480       1.415064       0.149779
       2.460000       1.420998       1.369833       0.151672
       2.470000       1.322450       1.321571       0.153374
       2.480000       1.229919       1.271343       0.154904
       2.490000       1.144608       1.220584       0.156300
       2.500000       1.066962       1.170848       0.157606
       2.510000       0.996840       1.123597       0.158858
       2.520000       0.933681       1.080034       0.160073
       2.530000       0.876680       1.040978       0.161258
       2.540000       0.824941       1.006804       0.162431
       2.550000       0.777621       0.977436       0.163639
       2.560000       0.734019       0.952388       0.164959
       2.570000       0.693617       0.930870       0.166482
       2.580000       0.656064       0.911928       0.168281
       2.590000       0.621137       0.894647       0.170366
       2.600000       0.588701       0.878353       0.172671
       2.610000       0.558679       0.862767       0.175048
       2.620000       0.531034       0.848059       0.177297
       2.630000       0.505749       0.834770       0.179202
       2.640000       0.482813       0.823661       0.180567
       2.650000       0.462205       0.815541       0.181242
       2.660000       0.443878       0.811140       0.181127
       2.670000       0.427760       0.811023       0.180164
       2.680000       0.413752       0.815559       0.178336
       2.690000       0.401726       0.824903       0.175666
       2.700000       0.391524       0.838983       0.172233
       2.710000       0.382956       0.857469       0.168178
       2.720000       0.375800       0.879743       0.163697
       2.730000       0.369804       0.904883       0.159019
       2.740000       0.364698       0.931697       0.154386
       2.750000       0.360229       0.958838       0.150023
       2.760000       0.356181       0.985019       0.146118
       2.770000       0.352418       1.009272       0.142813
       2.780000       0.348885       1.031187       0.140192
       2.790000       0.345605       1.050993       0.138278
       2.800000       0.342641       1.069447       0.137033
       2.810000       0.340050       1.087552       0.136365
       2.820000       0.337843       1.106224       0.136144
       2.830000       0.335955       1.126037       0.136227
       2.840000       0.334252       1.147129       0.136478
       2.850000       0.332548       1.169301       0.136798
       2.860000       0.330649       1.192273       0.137135
       2.870000       0.328398       1.215989       0.137494
       2.880000       0.325723       1.240874       0.137925
       2.890000       0.322661       1.267929       0.138517
       2.900000       0.319368       1.298649       0.139385
       2.910000       0.316091       1.334803       0.140654
       2.920000       0.313126       1.378156       0.142434
       2.930000       0.310769       1.430223       0.144803
       2.940000       0.309281       1.492079       0.147786
       2.950000       0.308873       1.564231       0.151347
       2.960000       0.309698       1.646524       0.155384
       2.970000       0.311862       1.738061       0.159737
       2.980000       0.315418       1.837133       0.164204
       2.990000       0.320365       1.941148       0.168563
       3.000000       0.326641       2.046581       0.172602
       3.010000       0.334109       2.148978       0.176150
       3.020000       0.342551       2.243067       0.179102
       3.030000       0.351662       2.323046       0.181421
       3.040000       0.361066       2.383079       0.183114
       3.050000       0.370358       2.417997       0.184208
       3.060000       0.379173       2.424106       0.184705
       3.070000       0.387272       2.399943       0.184577
       3.080000       0.394623       2.346738       0.183764
       3.090000       0.401430       2.268367       0.182204
       3.100000       0.408097       2.170719       0.179871
       3.110000       0.415142       2.060637       0.176800
       3.120000       0.423073       1.944789       0.173102
       3.130000       0.432280       1.828792       0.168949
       3.140000       0.442964       1.716773       0.164549
       3.150000       0.455106       1.611354       0.160106
       3.160000       0.468477       1.513913       0.155786
       3.170000       0.482701       1.424951       0.151703
       3.180000       0.497329       1.344418       0.147921
       3.190000       0.511940       1.271951       0.144460
       3.200000       0.526204       1.207013       0.141318
       3.210000       0.539893       1.148969       0.138487
       3.220000       0.552847       1.097144       0.135965
       3.230000       0.564884       1.050838       0.133763
       3.240000       0.575729       1.009349       0.131906
       3.250000       0.584969       0.971965       0.130423
       3.260000       0.592052       0.937999       0.129334
