  # energy grid [eV]     epsi_x  epsi_y  epsi_z
       0.000000            NaN            NaN            NaN
       0.010000       0.000090       0.000045       0.000133
       0.020000       0.000180       0.000090       0.000267
       0.030000       0.000271       0.000135       0.000401
       0.040000       0.000361       0.000181       0.000535
       0.050000       0.000451       0.000226       0.000669
       0.060000       0.000541       0.000271       0.000804
       0.070000       0.000632       0.000316       0.000940
       0.080000       0.000722       0.000361       0.001077
       0.090000       0.000813       0.000407       0.001214
       0.100000       0.000903       0.000452       0.001353
       0.110000       0.000993       0.000497       0.001493
       0.120000       0.001084       0.000542       0.001634
       0.130000       0.001175       0.000588       0.001776
       0.140000       0.001265       0.000633       0.001921
       0.150000       0.001356       0.000678       0.002067
       0.160000       0.001447       0.000724       0.002215
       0.170000       0.001538       0.000769       0.002365
       0.180000       0.001629       0.000814       0.002518
       0.190000       0.001720       0.000860       0.002673
       0.200000       0.001811       0.000905       0.002831
       0.210000       0.001902       0.000951       0.002992
       0.220000       0.001993       0.000997       0.003157
       0.230000       0.002085       0.001042       0.003324
       0.240000       0.002176       0.001088       0.003496
       0.250000       0.002268       0.001133       0.003672
       0.260000       0.002359       0.001179       0.003853
       0.270000       0.002451       0.001225       0.004038
       0.280000       0.002543       0.001271       0.004229
       0.290000       0.002636       0.001317       0.004425
       0.300000       0.002728       0.001363       0.004628
       0.310000       0.002820       0.001409       0.004837
       0.320000       0.002913       0.001455       0.005054
       0.330000       0.003006       0.001501       0.005279
       0.340000       0.003098       0.001547       0.005513
       0.350000       0.003192       0.001593       0.005756
       0.360000       0.003285       0.001639       0.006009
       0.370000       0.003378       0.001686       0.006274
       0.380000       0.003472       0.001732       0.006552
       0.390000       0.003566       0.001778       0.006843
       0.400000       0.003659       0.001825       0.007149
       0.410000       0.003754       0.001872       0.007472
       0.420000       0.003848       0.001918       0.007813
       0.430000       0.003943       0.001965       0.008175
       0.440000       0.004037       0.002012       0.008558
       0.450000       0.004132       0.002059       0.008967
       0.460000       0.004228       0.002106       0.009403
       0.470000       0.004323       0.002153       0.009871
       0.480000       0.004419       0.002200       0.010372
       0.490000       0.004515       0.002247       0.010912
       0.500000       0.004611       0.002295       0.011496
       0.510000       0.004707       0.002342       0.012128
       0.520000       0.004804       0.002390       0.012815
       0.530000       0.004901       0.002437       0.013565
       0.540000       0.004998       0.002485       0.014385
       0.550000       0.005096       0.002533       0.015285
       0.560000       0.005194       0.002581       0.016275
       0.570000       0.005292       0.002629       0.017370
       0.580000       0.005391       0.002677       0.018582
       0.590000       0.005489       0.002725       0.019928
       0.600000       0.005589       0.002774       0.021427
       0.610000       0.005688       0.002822       0.023100
       0.620000       0.005788       0.002871       0.024969
       0.630000       0.005888       0.002920       0.027057
       0.640000       0.005988       0.002968       0.029389
       0.650000       0.006089       0.003017       0.031987
       0.660000       0.006191       0.003067       0.034868
       0.670000       0.006292       0.003116       0.038036
       0.680000       0.006394       0.003165       0.041480
       0.690000       0.006497       0.003215       0.045159
       0.700000       0.006600       0.003264       0.048994
       0.710000       0.006703       0.003314       0.052854
       0.720000       0.006807       0.003364       0.056554
       0.730000       0.006911       0.003414       0.059860
       0.740000       0.007015       0.003464       0.062510
       0.750000       0.007120       0.003515       0.064263
       0.760000       0.007224       0.003565       0.064944
       0.770000       0.007330       0.003616       0.064492
       0.780000       0.007435       0.003667       0.062975
       0.790000       0.007541       0.003718       0.060571
       0.800000       0.007647       0.003769       0.057525
       0.810000       0.007753       0.003820       0.054098
       0.820000       0.007860       0.003872       0.050523
       0.830000       0.007968       0.003923       0.046981
       0.840000       0.008076       0.003975       0.043602
       0.850000       0.008184       0.004027       0.040462
       0.860000       0.008293       0.004079       0.037602
       0.870000       0.008403       0.004132       0.035032
       0.880000       0.008513       0.004184       0.032747
       0.890000       0.008624       0.004237       0.030730
       0.900000       0.008735       0.004290       0.028959
       0.910000       0.008847       0.004343       0.027410
       0.920000       0.008959       0.004396       0.026060
       0.930000       0.009072       0.004450       0.024888
       0.940000       0.009186       0.004504       0.023872
       0.950000       0.009300       0.004558       0.022995
       0.960000       0.009415       0.004612       0.022242
       0.970000       0.009530       0.004666       0.021597
       0.980000       0.009646       0.004721       0.021050
       0.990000       0.009763       0.004776       0.020590
       1.000000       0.009880       0.004831       0.020208
       1.010000       0.009998       0.004886       0.019897
       1.020000       0.010117       0.004942       0.019650
       1.030000       0.010236       0.004997       0.019462
       1.040000       0.010357       0.005054       0.019328
       1.050000       0.010477       0.005110       0.019245
       1.060000       0.010599       0.005166       0.019209
       1.070000       0.010721       0.005223       0.019219
       1.080000       0.010844       0.005280       0.019271
       1.090000       0.010968       0.005337       0.019366
       1.100000       0.011092       0.005395       0.019501
       1.110000       0.011217       0.005453       0.019677
       1.120000       0.011343       0.005511       0.019893
       1.130000       0.011470       0.005569       0.020150
       1.140000       0.011598       0.005628       0.020449
       1.150000       0.011726       0.005687       0.020791
       1.160000       0.011856       0.005746       0.021177
       1.170000       0.011986       0.005806       0.021610
       1.180000       0.012117       0.005866       0.022092
       1.190000       0.012249       0.005926       0.022628
       1.200000       0.012382       0.005986       0.023220
       1.210000       0.012515       0.006047       0.023873
       1.220000       0.012650       0.006108       0.024593
       1.230000       0.012786       0.006170       0.025386
       1.240000       0.012922       0.006232       0.026260
       1.250000       0.013060       0.006294       0.027223
       1.260000       0.013199       0.006356       0.028284
       1.270000       0.013338       0.006419       0.029456
       1.280000       0.013479       0.006482       0.030751
       1.290000       0.013621       0.006546       0.032185
       1.300000       0.013763       0.006610       0.033775
       1.310000       0.013907       0.006674       0.035542
       1.320000       0.014052       0.006739       0.037510
       1.330000       0.014199       0.006804       0.039704
       1.340000       0.014346       0.006869       0.042157
       1.350000       0.014494       0.006935       0.044902
       1.360000       0.014644       0.007002       0.047979
       1.370000       0.014795       0.007068       0.051429
       1.380000       0.014947       0.007136       0.055297
       1.390000       0.015101       0.007203       0.059629
       1.400000       0.015256       0.007271       0.064466
       1.410000       0.015412       0.007340       0.069840
       1.420000       0.015569       0.007409       0.075766
       1.430000       0.015728       0.007478       0.082224
       1.440000       0.015888       0.007548       0.089150
       1.450000       0.016050       0.007618       0.096412
       1.460000       0.016213       0.007689       0.103797
       1.470000       0.016378       0.007760       0.111001
       1.480000       0.016544       0.007832       0.117644
       1.490000       0.016711       0.007905       0.123302
       1.500000       0.016880       0.007978       0.127561
       1.510000       0.017051       0.008051       0.130084
       1.520000       0.017223       0.008125       0.130674
       1.530000       0.017397       0.008199       0.129306
       1.540000       0.017573       0.008274       0.126125
       1.550000       0.017751       0.008350       0.121423
       1.560000       0.017930       0.008426       0.115579
       1.570000       0.018111       0.008503       0.109006
       1.580000       0.018293       0.008581       0.102093
       1.590000       0.018478       0.008659       0.095166
       1.600000       0.018665       0.008737       0.088476
       1.610000       0.018853       0.008817       0.082189
       1.620000       0.019044       0.008897       0.076401
       1.630000       0.019236       0.008978       0.071154
       1.640000       0.019431       0.009059       0.066451
       1.650000       0.019628       0.009141       0.062271
       1.660000       0.019827       0.009224       0.058578
       1.670000       0.020028       0.009307       0.055329
       1.680000       0.020232       0.009391       0.052480
       1.690000       0.020437       0.009476       0.049990
       1.700000       0.020646       0.009562       0.047818
       1.710000       0.020856       0.009649       0.045928
       1.720000       0.021069       0.009736       0.044290
       1.730000       0.021285       0.009824       0.042875
       1.740000       0.021503       0.009913       0.041658
       1.750000       0.021724       0.010003       0.040619
       1.760000       0.021948       0.010094       0.039741
       1.770000       0.022174       0.010186       0.039006
       1.780000       0.022404       0.010278       0.038404
       1.790000       0.022636       0.010372       0.037922
       1.800000       0.022871       0.010466       0.037552
       1.810000       0.023109       0.010561       0.037286
       1.820000       0.023351       0.010658       0.037118
       1.830000       0.023595       0.010755       0.037043
       1.840000       0.023843       0.010854       0.037058
       1.850000       0.024094       0.010953       0.037160
       1.860000       0.024349       0.011054       0.037347
       1.870000       0.024608       0.011156       0.037620
       1.880000       0.024870       0.011259       0.037978
       1.890000       0.025135       0.011363       0.038423
       1.900000       0.025405       0.011468       0.038957
       1.910000       0.025678       0.011574       0.039584
       1.920000       0.025956       0.011682       0.040309
       1.930000       0.026238       0.011791       0.041138
       1.940000       0.026524       0.011902       0.042077
       1.950000       0.026814       0.012013       0.043135
       1.960000       0.027109       0.012127       0.044322
       1.970000       0.027409       0.012241       0.045651
       1.980000       0.027713       0.012357       0.047136
       1.990000       0.028023       0.012475       0.048792
       2.000000       0.028337       0.012594       0.050640
       2.010000       0.028657       0.012715       0.052702
       2.020000       0.028981       0.012837       0.055003
       2.030000       0.029312       0.012961       0.057574
       2.040000       0.029648       0.013087       0.060450
       2.050000       0.029990       0.013214       0.063669
       2.060000       0.030338       0.013344       0.067275
       2.070000       0.030693       0.013475       0.071319
       2.080000       0.031054       0.013608       0.075855
       2.090000       0.031421       0.013743       0.080940
       2.100000       0.031796       0.013881       0.086633
       2.110000       0.032177       0.014020       0.092989
       2.120000       0.032566       0.014162       0.100051
       2.130000       0.032962       0.014305       0.107843
       2.140000       0.033367       0.014451       0.116351
       2.150000       0.033779       0.014600       0.125507
       2.160000       0.034200       0.014751       0.135173
       2.170000       0.034629       0.014905       0.145123
       2.180000       0.035068       0.015061       0.155041
       2.190000       0.035516       0.015220       0.164539
       2.200000       0.035973       0.015381       0.173188
       2.210000       0.036441       0.015546       0.180577
       2.220000       0.036919       0.015714       0.186361
       2.230000       0.037408       0.015885       0.190303
       2.240000       0.037908       0.016059       0.192290
       2.250000       0.038419       0.016236       0.192329
       2.260000       0.038943       0.016417       0.190523
       2.270000       0.039480       0.016601       0.187044
       2.280000       0.040030       0.016790       0.182107
       2.290000       0.040593       0.016982       0.175953
       2.300000       0.041171       0.017178       0.168832
       2.310000       0.041764       0.017378       0.161000
       2.320000       0.042372       0.017583       0.152709
       2.330000       0.042997       0.017793       0.144208
       2.340000       0.043639       0.018007       0.135726
       2.350000       0.044298       0.018226       0.127470
       2.360000       0.044976       0.018450       0.119607
       2.370000       0.045673       0.018679       0.112263
       2.380000       0.046391       0.018915       0.105513
       2.390000       0.047131       0.019156       0.099396
       2.400000       0.047893       0.019403       0.093912
       2.410000       0.048678       0.019656       0.089041
       2.420000       0.049488       0.019917       0.084746
       2.430000       0.050325       0.020184       0.080983
       2.440000       0.051189       0.020459       0.077705
       2.450000       0.052081       0.020741       0.074865
       2.460000       0.053005       0.021032       0.072421
       2.470000       0.053961       0.021331       0.070333
       2.480000       0.054951       0.021639       0.068566
       2.490000       0.055977       0.021957       0.067089
       2.500000       0.057041       0.022284       0.065875
       2.510000       0.058146       0.022623       0.064903
       2.520000       0.059294       0.022972       0.064154
       2.530000       0.060488       0.023333       0.063612
       2.540000       0.061730       0.023706       0.063265
       2.550000       0.063025       0.024093       0.063104
       2.560000       0.064375       0.024493       0.063122
       2.570000       0.065785       0.024909       0.063314
       2.580000       0.067258       0.025340       0.063677
       2.590000       0.068798       0.025788       0.064213
       2.600000       0.070412       0.026254       0.064924
       2.610000       0.072105       0.026739       0.065814
       2.620000       0.073882       0.027244       0.066891
       2.630000       0.075750       0.027771       0.068163
       2.640000       0.077717       0.028321       0.069644
       2.650000       0.079791       0.028897       0.071349
       2.660000       0.081980       0.029499       0.073297
       2.670000       0.084296       0.030131       0.075509
       2.680000       0.086749       0.030793       0.078013
       2.690000       0.089352       0.031489       0.080840
       2.700000       0.092118       0.032222       0.084026
       2.710000       0.095064       0.032994       0.087612
       2.720000       0.098208       0.033809       0.091647
       2.730000       0.101567       0.034670       0.096185
       2.740000       0.105165       0.035582       0.101284
       2.750000       0.109026       0.036550       0.107011
       2.760000       0.113175       0.037578       0.113431
       2.770000       0.117641       0.038673       0.120610
       2.780000       0.122454       0.039841       0.128607
       2.790000       0.127647       0.041090       0.137460
       2.800000       0.133248       0.042427       0.147176
       2.810000       0.139287       0.043863       0.157714
       2.820000       0.145786       0.045408       0.168961
       2.830000       0.152761       0.047074       0.180720
       2.840000       0.160214       0.048876       0.192701
       2.850000       0.168141       0.050829       0.204533
       2.860000       0.176529       0.052952       0.215796
       2.870000       0.185369       0.055266       0.226070
       2.880000       0.194675       0.057794       0.234989
       2.890000       0.204500       0.060565       0.242281
       2.900000       0.214947       0.063610       0.247794
       2.910000       0.226179       0.066964       0.251486
       2.920000       0.238410       0.070670       0.253411
       2.930000       0.251890       0.074775       0.253691
       2.940000       0.266892       0.079330       0.252489
       2.950000       0.283704       0.084396       0.249987
       2.960000       0.302624       0.090034       0.246372
       2.970000       0.323957       0.096313       0.241821
       2.980000       0.348016       0.103299       0.236500
       2.990000       0.375117       0.111054       0.230559
       3.000000       0.405559       0.119622       0.224132
       3.010000       0.439609       0.129021       0.217336
       3.020000       0.477453       0.139214       0.210275
       3.030000       0.519142       0.150094       0.203041
       3.040000       0.564520       0.161449       0.195718
       3.050000       0.613138       0.172944       0.188387
       3.060000       0.664183       0.184114       0.181125
       3.070000       0.716429       0.194396       0.174012
       3.080000       0.768237       0.203198       0.167134
       3.090000       0.817605       0.210004       0.160577
       3.100000       0.862244       0.214484       0.154425
       3.110000       0.899689       0.216562       0.148754
       3.120000       0.927439       0.216421       0.143622
       3.130000       0.943229       0.214444       0.139064
       3.140000       0.945412       0.211123       0.135090
       3.150000       0.933406       0.206986       0.131691
       3.160000       0.907979       0.202545       0.128842
       3.170000       0.871205       0.198271       0.126515
       3.180000       0.826068       0.194577       0.124685
       3.190000       0.775881       0.191808       0.123337
       3.200000       0.723736       0.190230       0.122463
       3.210000       0.672152       0.190034       0.122065
       3.220000       0.622941       0.191335       0.122150
       3.230000       0.577241       0.194169       0.122731
       3.240000       0.535646       0.198490       0.123824
       3.250000       0.498343       0.204155       0.125447
       3.260000       0.465254       0.210899       0.127624
