  # energy grid [eV]     epsi_x  epsi_y  epsi_z
       0.000000            NaN            NaN            NaN
       0.010000       0.000100       0.000010       0.000146
       0.020000       0.000201       0.000020       0.000293
       0.030000       0.000301       0.000031       0.000440
       0.040000       0.000402       0.000041       0.000587
       0.050000       0.000502       0.000051       0.000735
       0.060000       0.000602       0.000061       0.000885
       0.070000       0.000703       0.000071       0.001035
       0.080000       0.000803       0.000082       0.001187
       0.090000       0.000904       0.000092       0.001340
       0.100000       0.001004       0.000102       0.001495
       0.110000       0.001105       0.000112       0.001652
       0.120000       0.001206       0.000122       0.001811
       0.130000       0.001306       0.000133       0.001973
       0.140000       0.001407       0.000143       0.002138
       0.150000       0.001508       0.000153       0.002306
       0.160000       0.001609       0.000163       0.002477
       0.170000       0.001709       0.000173       0.002652
       0.180000       0.001810       0.000184       0.002832
       0.190000       0.001911       0.000194       0.003016
       0.200000       0.002012       0.000204       0.003205
       0.210000       0.002114       0.000214       0.003399
       0.220000       0.002215       0.000224       0.003599
       0.230000       0.002316       0.000235       0.003806
       0.240000       0.002418       0.000245       0.004020
       0.250000       0.002519       0.000255       0.004242
       0.260000       0.002621       0.000265       0.004473
       0.270000       0.002722       0.000276       0.004713
       0.280000       0.002824       0.000286       0.004963
       0.290000       0.002926       0.000296       0.005225
       0.300000       0.003028       0.000306       0.005500
       0.310000       0.003130       0.000317       0.005788
       0.320000       0.003233       0.000327       0.006091
       0.330000       0.003335       0.000337       0.006412
       0.340000       0.003437       0.000347       0.006751
       0.350000       0.003540       0.000358       0.007110
       0.360000       0.003643       0.000368       0.007493
       0.370000       0.003746       0.000378       0.007901
       0.380000       0.003849       0.000389       0.008338
       0.390000       0.003952       0.000399       0.008808
       0.400000       0.004055       0.000409       0.009313
       0.410000       0.004159       0.000420       0.009858
       0.420000       0.004263       0.000430       0.010449
       0.430000       0.004366       0.000440       0.011091
       0.440000       0.004470       0.000451       0.011791
       0.450000       0.004574       0.000461       0.012557
       0.460000       0.004679       0.000471       0.013397
       0.470000       0.004783       0.000482       0.014323
       0.480000       0.004888       0.000492       0.015345
       0.490000       0.004993       0.000502       0.016478
       0.500000       0.005098       0.000513       0.017736
       0.510000       0.005203       0.000523       0.019137
       0.520000       0.005309       0.000534       0.020700
       0.530000       0.005414       0.000544       0.022446
       0.540000       0.005520       0.000554       0.024397
       0.550000       0.005626       0.000565       0.026575
       0.560000       0.005733       0.000575       0.029000
       0.570000       0.005839       0.000586       0.031684
       0.580000       0.005946       0.000596       0.034633
       0.590000       0.006053       0.000607       0.037830
       0.600000       0.006160       0.000617       0.041234
       0.610000       0.006268       0.000628       0.044764
       0.620000       0.006376       0.000638       0.048293
       0.630000       0.006484       0.000649       0.051641
       0.640000       0.006592       0.000659       0.054586
       0.650000       0.006700       0.000670       0.056887
       0.660000       0.006809       0.000680       0.058328
       0.670000       0.006918       0.000691       0.058765
       0.680000       0.007028       0.000701       0.058163
       0.690000       0.007137       0.000712       0.056608
       0.700000       0.007247       0.000722       0.054281
       0.710000       0.007357       0.000733       0.051415
       0.720000       0.007468       0.000744       0.048247
       0.730000       0.007578       0.000754       0.044983
       0.740000       0.007689       0.000765       0.041781
       0.750000       0.007801       0.000775       0.038748
       0.760000       0.007912       0.000786       0.035947
       0.770000       0.008024       0.000797       0.033407
       0.780000       0.008137       0.000807       0.031135
       0.790000       0.008249       0.000818       0.029123
       0.800000       0.008362       0.000829       0.027353
       0.810000       0.008476       0.000840       0.025806
       0.820000       0.008589       0.000850       0.024459
       0.830000       0.008703       0.000861       0.023293
       0.840000       0.008818       0.000872       0.022287
       0.850000       0.008933       0.000883       0.021424
       0.860000       0.009048       0.000893       0.020687
       0.870000       0.009163       0.000904       0.020064
       0.880000       0.009279       0.000915       0.019541
       0.890000       0.009395       0.000926       0.019110
       0.900000       0.009512       0.000937       0.018761
       0.910000       0.009629       0.000948       0.018487
       0.920000       0.009746       0.000958       0.018283
       0.930000       0.009864       0.000969       0.018142
       0.940000       0.009982       0.000980       0.018061
       0.950000       0.010101       0.000991       0.018036
       0.960000       0.010220       0.001002       0.018067
       0.970000       0.010340       0.001013       0.018150
       0.980000       0.010460       0.001024       0.018285
       0.990000       0.010580       0.001035       0.018471
       1.000000       0.010701       0.001046       0.018709
       1.010000       0.010822       0.001057       0.019001
       1.020000       0.010944       0.001068       0.019347
       1.030000       0.011066       0.001079       0.019751
       1.040000       0.011189       0.001090       0.020214
       1.050000       0.011312       0.001101       0.020742
       1.060000       0.011436       0.001112       0.021340
       1.070000       0.011560       0.001124       0.022012
       1.080000       0.011685       0.001135       0.022766
       1.090000       0.011810       0.001146       0.023611
       1.100000       0.011936       0.001157       0.024556
       1.110000       0.012062       0.001168       0.025613
       1.120000       0.012189       0.001180       0.026794
       1.130000       0.012316       0.001191       0.028115
       1.140000       0.012444       0.001202       0.029595
       1.150000       0.012573       0.001213       0.031254
       1.160000       0.012702       0.001225       0.033115
       1.170000       0.012831       0.001236       0.035205
       1.180000       0.012961       0.001248       0.037555
       1.190000       0.013092       0.001259       0.040198
       1.200000       0.013223       0.001270       0.043169
       1.210000       0.013355       0.001282       0.046505
       1.220000       0.013488       0.001293       0.050242
       1.230000       0.013621       0.001305       0.054407
       1.240000       0.013755       0.001316       0.059015
       1.250000       0.013889       0.001328       0.064060
       1.260000       0.014024       0.001339       0.069494
       1.270000       0.014160       0.001351       0.075220
       1.280000       0.014296       0.001362       0.081066
       1.290000       0.014433       0.001374       0.086781
       1.300000       0.014571       0.001386       0.092033
       1.310000       0.014709       0.001397       0.096437
       1.320000       0.014848       0.001409       0.099608
       1.330000       0.014988       0.001421       0.101237
       1.340000       0.015129       0.001433       0.101159
       1.350000       0.015270       0.001444       0.099400
       1.360000       0.015412       0.001456       0.096165
       1.370000       0.015555       0.001468       0.091792
       1.380000       0.015698       0.001480       0.086672
       1.390000       0.015842       0.001492       0.081180
       1.400000       0.015987       0.001504       0.075630
       1.410000       0.016133       0.001516       0.070252
       1.420000       0.016280       0.001527       0.065198
       1.430000       0.016427       0.001539       0.060553
       1.440000       0.016575       0.001552       0.056351
       1.450000       0.016724       0.001564       0.052594
       1.460000       0.016874       0.001576       0.049263
       1.470000       0.017025       0.001588       0.046327
       1.480000       0.017176       0.001600       0.043752
       1.490000       0.017329       0.001612       0.041501
       1.500000       0.017482       0.001624       0.039540
       1.510000       0.017636       0.001637       0.037837
       1.520000       0.017791       0.001649       0.036362
       1.530000       0.017947       0.001661       0.035092
       1.540000       0.018104       0.001673       0.034002
       1.550000       0.018262       0.001686       0.033075
       1.560000       0.018421       0.001698       0.032293
       1.570000       0.018581       0.001711       0.031643
       1.580000       0.018742       0.001723       0.031113
       1.590000       0.018903       0.001736       0.030693
       1.600000       0.019066       0.001748       0.030376
       1.610000       0.019230       0.001761       0.030153
       1.620000       0.019395       0.001773       0.030022
       1.630000       0.019561       0.001786       0.029976
       1.640000       0.019728       0.001799       0.030014
       1.650000       0.019896       0.001811       0.030135
       1.660000       0.020065       0.001824       0.030336
       1.670000       0.020235       0.001837       0.030620
       1.680000       0.020407       0.001850       0.030988
       1.690000       0.020579       0.001863       0.031443
       1.700000       0.020753       0.001875       0.031987
       1.710000       0.020928       0.001888       0.032627
       1.720000       0.021104       0.001901       0.033369
       1.730000       0.021281       0.001914       0.034220
       1.740000       0.021459       0.001927       0.035191
       1.750000       0.021639       0.001941       0.036292
       1.760000       0.021820       0.001954       0.037538
       1.770000       0.022002       0.001967       0.038944
       1.780000       0.022186       0.001980       0.040529
       1.790000       0.022371       0.001993       0.042314
       1.800000       0.022557       0.002007       0.044325
       1.810000       0.022744       0.002020       0.046590
       1.820000       0.022933       0.002033       0.049143
       1.830000       0.023124       0.002047       0.052019
       1.840000       0.023315       0.002060       0.055261
       1.850000       0.023508       0.002074       0.058911
       1.860000       0.023703       0.002087       0.063013
       1.870000       0.023899       0.002101       0.067611
       1.880000       0.024096       0.002115       0.072739
       1.890000       0.024295       0.002128       0.078416
       1.900000       0.024496       0.002142       0.084630
       1.910000       0.024698       0.002156       0.091329
       1.920000       0.024902       0.002170       0.098392
       1.930000       0.025107       0.002184       0.105620
       1.940000       0.025314       0.002198       0.112715
       1.950000       0.025523       0.002212       0.119291
       1.960000       0.025733       0.002226       0.124898
       1.970000       0.025945       0.002240       0.129085
       1.980000       0.026158       0.002254       0.131476
       1.990000       0.026374       0.002268       0.131849
       2.000000       0.026591       0.002283       0.130186
       2.010000       0.026810       0.002297       0.126680
       2.020000       0.027031       0.002311       0.121689
       2.030000       0.027254       0.002326       0.115657
       2.040000       0.027478       0.002340       0.109040
       2.050000       0.027705       0.002355       0.102240
       2.060000       0.027933       0.002370       0.095566
       2.070000       0.028164       0.002384       0.089238
       2.080000       0.028396       0.002399       0.083384
       2.090000       0.028631       0.002414       0.078071
       2.100000       0.028867       0.002429       0.073313
       2.110000       0.029106       0.002444       0.069098
       2.120000       0.029347       0.002459       0.065393
       2.130000       0.029590       0.002474       0.062158
       2.140000       0.029835       0.002489       0.059349
       2.150000       0.030082       0.002504       0.056924
       2.160000       0.030332       0.002519       0.054843
       2.170000       0.030584       0.002534       0.053069
       2.180000       0.030839       0.002550       0.051571
       2.190000       0.031096       0.002565       0.050321
       2.200000       0.031355       0.002581       0.049295
       2.210000       0.031617       0.002596       0.048474
       2.220000       0.031881       0.002612       0.047840
       2.230000       0.032148       0.002628       0.047380
       2.240000       0.032417       0.002644       0.047082
       2.250000       0.032689       0.002659       0.046939
       2.260000       0.032964       0.002675       0.046944
       2.270000       0.033242       0.002691       0.047093
       2.280000       0.033522       0.002707       0.047385
       2.290000       0.033805       0.002724       0.047819
       2.300000       0.034092       0.002740       0.048398
       2.310000       0.034381       0.002756       0.049125
       2.320000       0.034673       0.002773       0.050007
       2.330000       0.034968       0.002789       0.051052
       2.340000       0.035266       0.002806       0.052272
       2.350000       0.035567       0.002822       0.053680
       2.360000       0.035872       0.002839       0.055292
       2.370000       0.036180       0.002856       0.057129
       2.380000       0.036491       0.002873       0.059213
       2.390000       0.036806       0.002890       0.061572
       2.400000       0.037124       0.002907       0.064239
       2.410000       0.037445       0.002924       0.067250
       2.420000       0.037771       0.002942       0.070649
       2.430000       0.038100       0.002959       0.074484
       2.440000       0.038432       0.002977       0.078808
       2.450000       0.038769       0.002994       0.083681
       2.460000       0.039109       0.003012       0.089163
       2.470000       0.039453       0.003030       0.095316
       2.480000       0.039802       0.003048       0.102193
       2.490000       0.040154       0.003066       0.109834
       2.500000       0.040511       0.003084       0.118248
       2.510000       0.040872       0.003102       0.127399
       2.520000       0.041237       0.003120       0.137180
       2.530000       0.041607       0.003139       0.147398
       2.540000       0.041981       0.003157       0.157751
       2.550000       0.042360       0.003176       0.167830
       2.560000       0.042744       0.003195       0.177141
       2.570000       0.043133       0.003214       0.185144
       2.580000       0.043526       0.003233       0.191323
       2.590000       0.043925       0.003252       0.195249
       2.600000       0.044328       0.003271       0.196645
       2.610000       0.044737       0.003290       0.195424
       2.620000       0.045152       0.003310       0.191703
       2.630000       0.045572       0.003330       0.185792
       2.640000       0.045997       0.003349       0.178148
       2.650000       0.046429       0.003369       0.169310
       2.660000       0.046866       0.003389       0.159825
       2.670000       0.047309       0.003410       0.150182
       2.680000       0.047758       0.003430       0.140772
       2.690000       0.048214       0.003451       0.131874
       2.700000       0.048676       0.003471       0.123663
       2.710000       0.049145       0.003492       0.116225
       2.720000       0.049621       0.003513       0.109586
       2.730000       0.050103       0.003534       0.103728
       2.740000       0.050593       0.003555       0.098610
       2.750000       0.051089       0.003577       0.094177
       2.760000       0.051594       0.003599       0.090369
       2.770000       0.052105       0.003620       0.087131
       2.780000       0.052625       0.003642       0.084407
       2.790000       0.053153       0.003664       0.082149
       2.800000       0.053689       0.003687       0.080316
       2.810000       0.054233       0.003709       0.078871
       2.820000       0.054786       0.003732       0.077785
       2.830000       0.055348       0.003755       0.077033
       2.840000       0.055919       0.003778       0.076598
       2.850000       0.056499       0.003801       0.076464
       2.860000       0.057089       0.003825       0.076623
       2.870000       0.057689       0.003849       0.077071
       2.880000       0.058299       0.003873       0.077807
       2.890000       0.058920       0.003897       0.078835
       2.900000       0.059551       0.003921       0.080161
       2.910000       0.060193       0.003946       0.081798
       2.920000       0.060847       0.003971       0.083761
       2.930000       0.061512       0.003996       0.086066
       2.940000       0.062190       0.004021       0.088738
       2.950000       0.062879       0.004047       0.091804
       2.960000       0.063582       0.004073       0.095296
       2.970000       0.064297       0.004099       0.099255
       2.980000       0.065027       0.004126       0.103732
       2.990000       0.065770       0.004152       0.108787
       3.000000       0.066528       0.004180       0.114491
       3.010000       0.067300       0.004207       0.120923
       3.020000       0.068088       0.004235       0.128163
       3.030000       0.068892       0.004263       0.136290
       3.040000       0.069712       0.004291       0.145366
       3.050000       0.070550       0.004320       0.155426
       3.060000       0.071404       0.004349       0.166461
       3.070000       0.072277       0.004378       0.178393
       3.080000       0.073169       0.004408       0.191060
       3.090000       0.074081       0.004438       0.204196
       3.100000       0.075012       0.004468       0.217435
       3.110000       0.075964       0.004499       0.230326
       3.120000       0.076938       0.004531       0.242375
       3.130000       0.077935       0.004563       0.253096
       3.140000       0.078955       0.004595       0.262051
       3.150000       0.079999       0.004628       0.268884
       3.160000       0.081068       0.004661       0.273330
       3.170000       0.082164       0.004695       0.275216
       3.180000       0.083287       0.004729       0.274459
       3.190000       0.084438       0.004764       0.271078
       3.200000       0.085619       0.004799       0.265207
       3.210000       0.086831       0.004835       0.257111
       3.220000       0.088075       0.004871       0.247191
       3.230000       0.089352       0.004908       0.235946
       3.240000       0.090665       0.004946       0.223932
       3.250000       0.092014       0.004985       0.211687
       3.260000       0.093402       0.005024       0.199680
