  # energy grid [eV]     epsi_x  epsi_y  epsi_z
       0.000000            NaN            NaN            NaN
       0.010000       0.004493       0.000934       0.000266
       0.020000       0.008992       0.001869       0.000533
       0.030000       0.013501       0.002804       0.000801
       0.040000       0.018025       0.003741       0.001072
       0.050000       0.022571       0.004680       0.001347
       0.060000       0.027144       0.005621       0.001627
       0.070000       0.031748       0.006566       0.001912
       0.080000       0.036390       0.007514       0.002204
       0.090000       0.041075       0.008466       0.002505
       0.100000       0.045809       0.009422       0.002814
       0.110000       0.050599       0.010384       0.003135
       0.120000       0.055449       0.011351       0.003467
       0.130000       0.060368       0.012324       0.003814
       0.140000       0.065360       0.013304       0.004178
       0.150000       0.070434       0.014292       0.004559
       0.160000       0.075596       0.015287       0.004961
       0.170000       0.080853       0.016291       0.005386
       0.180000       0.086214       0.017305       0.005838
       0.190000       0.091686       0.018328       0.006319
       0.200000       0.097279       0.019361       0.006833
       0.210000       0.103000       0.020406       0.007384
       0.220000       0.108860       0.021463       0.007976
       0.230000       0.114868       0.022533       0.008611
       0.240000       0.121035       0.023616       0.009294
       0.250000       0.127372       0.024713       0.010026
       0.260000       0.133890       0.025826       0.010806
       0.270000       0.140603       0.026954       0.011633
       0.280000       0.147524       0.028100       0.012499
       0.290000       0.154666       0.029264       0.013395
       0.300000       0.162046       0.030446       0.014307
       0.310000       0.169679       0.031649       0.015218
       0.320000       0.177582       0.032873       0.016116
       0.330000       0.185776       0.034120       0.016993
       0.340000       0.194278       0.035390       0.017851
       0.350000       0.203112       0.036685       0.018705
       0.360000       0.212300       0.038006       0.019580
       0.370000       0.221867       0.039356       0.020508
       0.380000       0.231841       0.040735       0.021523
       0.390000       0.242250       0.042145       0.022659
       0.400000       0.253128       0.043589       0.023946
       0.410000       0.264508       0.045067       0.025407
       0.420000       0.276428       0.046582       0.027064
       0.430000       0.288928       0.048137       0.028932
       0.440000       0.302055       0.049733       0.031017
       0.450000       0.315856       0.051374       0.033323
       0.460000       0.330385       0.053061       0.035846
       0.470000       0.345701       0.054799       0.038573
       0.480000       0.361868       0.056589       0.041488
       0.490000       0.378958       0.058436       0.044569
       0.500000       0.397049       0.060344       0.047784
       0.510000       0.416227       0.062316       0.051089
       0.520000       0.436589       0.064356       0.054421
       0.530000       0.458241       0.066471       0.057699
       0.540000       0.481302       0.068664       0.060824
       0.550000       0.505903       0.070943       0.063697
       0.560000       0.532191       0.073313       0.066225
       0.570000       0.560332       0.075781       0.068336
       0.580000       0.590511       0.078355       0.069983
       0.590000       0.622935       0.081045       0.071140
       0.600000       0.657838       0.083859       0.071802
       0.610000       0.695485       0.086808       0.071983
       0.620000       0.736175       0.089904       0.071729
       0.630000       0.780247       0.093161       0.071109
       0.640000       0.828087       0.096594       0.070216
       0.650000       0.880134       0.100218       0.069149
       0.660000       0.936888       0.104055       0.068006
       0.670000       0.998921       0.108124       0.066864
       0.680000       1.066887       0.112451       0.065776
       0.690000       1.141533       0.117062       0.064764
       0.700000       1.223713       0.121990       0.063825
       0.710000       1.314402       0.127271       0.062935
       0.720000       1.414711       0.132944       0.062066
       0.730000       1.525897       0.139056       0.061198
       0.740000       1.649374       0.145660       0.060325
       0.750000       1.786719       0.152814       0.059450
       0.760000       1.939661       0.160586       0.058580
       0.770000       2.110063       0.169046       0.057716
       0.780000       2.299871       0.178276       0.056850
       0.790000       2.511045       0.188359       0.055974
       0.800000       2.745421       0.199378       0.055084
       0.810000       3.004530       0.211413       0.054194
       0.820000       3.289292       0.224524       0.053331
       0.830000       3.599605       0.238745       0.052531
       0.840000       3.933789       0.254056       0.051823
       0.850000       4.287967       0.270369       0.051219
       0.860000       4.655545       0.287499       0.050707
       0.870000       5.027059       0.305152       0.050254
       0.880000       5.390681       0.322932       0.049815
       0.890000       5.733497       0.340363       0.049351
       0.900000       6.043375       0.356949       0.048843
       0.910000       6.310891       0.372245       0.048304
       0.920000       6.530646       0.385929       0.047773
       0.930000       6.701535       0.397853       0.047308
       0.940000       6.825964       0.408050       0.046971
       0.950000       6.908390       0.416710       0.046812
       0.960000       6.953852       0.424129       0.046862
       0.970000       6.967000       0.430660       0.047125
       0.980000       6.951778       0.436685       0.047581
       0.990000       6.911434       0.442598       0.048185
       1.000000       6.848430       0.448794       0.048876
       1.010000       6.764161       0.455651       0.049584
       1.020000       6.658773       0.463516       0.050246
       1.030000       6.531419       0.472709       0.050808
       1.040000       6.380875       0.483529       0.051241
       1.050000       6.206110       0.496271       0.051541
       1.060000       6.006480       0.511235       0.051724
       1.070000       5.781687       0.528711       0.051826
       1.080000       5.531953       0.548970       0.051882
       1.090000       5.258657       0.572234       0.051920
       1.100000       4.965163       0.598657       0.051943
       1.110000       4.657209       0.628273       0.051930
       1.120000       4.342469       0.660945       0.051838
       1.130000       4.029400       0.696300       0.051620
       1.140000       3.725906       0.733695       0.051233
       1.150000       3.438335       0.772235       0.050658
       1.160000       3.171020       0.810882       0.049907
       1.170000       2.926313       0.848658       0.049026
       1.180000       2.704906       0.884882       0.048085
       1.190000       2.506254       0.919357       0.047165
       1.200000       2.328981       0.952381       0.046345
       1.210000       2.171204       0.984578       0.045689
       1.220000       2.030805       1.016572       0.045236
       1.230000       1.905636       1.048671       0.044998
       1.240000       1.793689       1.080659       0.044958
       1.250000       1.693215       1.111808       0.045075
       1.260000       1.602784       1.141120       0.045285
       1.270000       1.521267       1.167714       0.045513
       1.280000       1.447755       1.191227       0.045683
       1.290000       1.381468       1.212031       0.045741
       1.300000       1.321678       1.231167       0.045663
       1.310000       1.267688       1.250020       0.045462
       1.320000       1.218859       1.269883       0.045188
       1.330000       1.174669       1.291590       0.044913
       1.340000       1.134763       1.315351       0.044718
       1.350000       1.098970       1.340832       0.044674
       1.360000       1.067282       1.367434       0.044839
       1.370000       1.039791       1.394650       0.045248
       1.380000       1.016639       1.422336       0.045911
       1.390000       0.997979       1.450746       0.046812
       1.400000       0.983949       1.480321       0.047908
       1.410000       0.974681       1.511318       0.049124
       1.420000       0.970305       1.543477       0.050363
       1.430000       0.970960       1.575893       0.051510
       1.440000       0.976808       1.607194       0.052453
       1.450000       0.988030       1.635966       0.053101
       1.460000       1.004820       1.661259       0.053409
       1.470000       1.027368       1.682941       0.053384
       1.480000       1.055829       1.701728       0.053082
       1.490000       1.090272       1.718867       0.052586
       1.500000       1.130631       1.735667       0.051989
       1.510000       1.176638       1.753070       0.051373
       1.520000       1.227780       1.771395       0.050803
       1.530000       1.283273       1.790276       0.050325
       1.540000       1.342103       1.808722       0.049974
       1.550000       1.403106       1.825273       0.049771
       1.560000       1.465109       1.838260       0.049722
       1.570000       1.527085       1.846170       0.049817
       1.580000       1.588266       1.848059       0.050025
       1.590000       1.648181       1.843866       0.050292
       1.600000       1.706608       1.834531       0.050554
       1.610000       1.763457       1.821835       0.050743
       1.620000       1.818656       1.808027       0.050801
       1.630000       1.872046       1.795358       0.050699
       1.640000       1.923360       1.785638       0.050437
       1.650000       1.972270       1.779969       0.050045
       1.660000       2.018514       1.778692       0.049576
       1.670000       2.062019       1.781550       0.049091
       1.680000       2.102935       1.787986       0.048651
       1.690000       2.141551       1.797442       0.048301
       1.700000       2.178126       1.809532       0.048069
       1.710000       2.212710       1.824006       0.047964
       1.720000       2.244992       1.840574       0.047977
       1.730000       2.274195       1.858703       0.048096
       1.740000       2.299015       1.877556       0.048304
       1.750000       2.317636       1.896106       0.048590
       1.760000       2.327802       1.913372       0.048943
       1.770000       2.326971       1.928637       0.049354
       1.780000       2.312540       1.941548       0.049803
       1.790000       2.282198       1.952106       0.050272
       1.800000       2.234369       1.960632       0.050738
       1.810000       2.168687       1.967773       0.051191
       1.820000       2.086320       1.974521       0.051635
       1.830000       1.989990       1.982136       0.052085
       1.840000       1.883617       1.991948       0.052571
       1.850000       1.771683       2.005080       0.053119
       1.860000       1.658539       2.022200       0.053751
       1.870000       1.547873       2.043389       0.054472
       1.880000       1.442437       2.068108       0.055273
       1.890000       1.344032       2.095220       0.056131
       1.900000       1.253639       2.123029       0.057013
       1.910000       1.171600       2.149354       0.057887
       1.920000       1.097808       2.171742       0.058719
       1.930000       1.031853       2.187856       0.059482
       1.940000       0.973154       2.195976       0.060146
       1.950000       0.921049       2.195411       0.060688
       1.960000       0.874865       2.186614       0.061095
       1.970000       0.833945       2.170924       0.061369
       1.980000       0.797651       2.150062       0.061529
       1.990000       0.765353       2.125609       0.061605
       2.000000       0.736413       2.098678       0.061633
       2.010000       0.710195       2.069857       0.061647
       2.020000       0.686103       2.039375       0.061667
       2.030000       0.663643       2.007343       0.061704
       2.040000       0.642465       1.973924       0.061761
       2.050000       0.622383       1.939360       0.061841
       2.060000       0.603343       1.903881       0.061943
       2.070000       0.585366       1.867645       0.062070
       2.080000       0.568499       1.830791       0.062222
       2.090000       0.552791       1.793612       0.062398
       2.100000       0.538299       1.756737       0.062603
       2.110000       0.525106       1.721174       0.062851
       2.120000       0.513330       1.688166       0.063170
       2.130000       0.503120       1.658904       0.063596
       2.140000       0.494629       1.634240       0.064168
       2.150000       0.487987       1.614520       0.064914
       2.160000       0.483274       1.599605       0.065838
       2.170000       0.480502       1.589057       0.066916
       2.180000       0.479604       1.582406       0.068100
       2.190000       0.480423       1.579354       0.069326
       2.200000       0.482711       1.579842       0.070525
       2.210000       0.486145       1.583974       0.071642
       2.220000       0.490358       1.591884       0.072641
       2.230000       0.495008       1.603654       0.073516
       2.240000       0.499850       1.619320       0.074281
       2.250000       0.504805       1.638917       0.074973
       2.260000       0.509982       1.662472       0.075641
       2.270000       0.515644       1.689899       0.076341
       2.280000       0.522125       1.720808       0.077127
       2.290000       0.529739       1.754295       0.078042
       2.300000       0.538704       1.788801       0.079112
       2.310000       0.549107       1.822045       0.080342
       2.320000       0.560912       1.851092       0.081720
       2.330000       0.573994       1.872605       0.083225
       2.340000       0.588199       1.883321       0.084831
       2.350000       0.603386       1.880695       0.086516
       2.360000       0.619424       1.863495       0.088260
       2.370000       0.636155       1.832114       0.090048
       2.380000       0.653334       1.788432       0.091873
       2.390000       0.670584       1.735342       0.093734
       2.400000       0.687407       1.676141       0.095641
       2.410000       0.703244       1.614008       0.097603
       2.420000       0.717538       1.551668       0.099616
       2.430000       0.729772       1.491198       0.101654
       2.440000       0.739458       1.433962       0.103658
       2.450000       0.746109       1.380647       0.105545
       2.460000       0.749216       1.331400       0.107220
       2.470000       0.748268       1.286046       0.108596
       2.480000       0.742815       1.244308       0.109610
       2.490000       0.732574       1.205950       0.110237
       2.500000       0.717536       1.170816       0.110491
       2.510000       0.698056       1.138757       0.110419
       2.520000       0.674859       1.109538       0.110082
       2.530000       0.648959       1.082798       0.109550
       2.540000       0.621516       1.058084       0.108886
       2.550000       0.593668       1.034967       0.108154
       2.560000       0.566410       1.013177       0.107420
       2.570000       0.540506       0.992694       0.106750
       2.580000       0.516470       0.973761       0.106210
       2.590000       0.494571       0.956807       0.105847
       2.600000       0.474870       0.942309       0.105681
       2.610000       0.457271       0.930649       0.105697
       2.620000       0.441576       0.921996       0.105853
       2.630000       0.427550       0.916258       0.106092
       2.640000       0.414970       0.913099       0.106360
       2.650000       0.403665       0.912025       0.106623
       2.660000       0.393534       0.912500       0.106873
       2.670000       0.384541       0.914082       0.107122
       2.680000       0.376700       0.916520       0.107396
       2.690000       0.370049       0.919783       0.107717
       2.700000       0.364627       0.924008       0.108099
       2.710000       0.360456       0.929364       0.108547
       2.720000       0.357526       0.935910       0.109069
       2.730000       0.355781       0.943487       0.109684
       2.740000       0.355118       0.951700       0.110424
       2.750000       0.355384       0.959990       0.111335
       2.760000       0.356379       0.967758       0.112463
       2.770000       0.357876       0.974502       0.113836
       2.780000       0.359649       0.979902       0.115453
       2.790000       0.361511       0.983867       0.117276
       2.800000       0.363351       0.986554       0.119233
       2.810000       0.365157       0.988380       0.121230
       2.820000       0.367012       0.990009       0.123167
       2.830000       0.369071       0.992312       0.124946
       2.840000       0.371527       0.996290       0.126480
       2.850000       0.374585       1.002979       0.127690
       2.860000       0.378443       1.013364       0.128511
       2.870000       0.383292       1.028309       0.128898
       2.880000       0.389309       1.048490       0.128837
       2.890000       0.396660       1.074333       0.128359
       2.900000       0.405493       1.105947       0.127530
       2.910000       0.415939       1.143077       0.126450
       2.920000       0.428109       1.185073       0.125224
       2.930000       0.442090       1.230903       0.123943
       2.940000       0.457945       1.279202       0.122676
       2.950000       0.475716       1.328361       0.121468
       2.960000       0.495431       1.376631       0.120349
       2.970000       0.517116       1.422228       0.119345
       2.980000       0.540816       1.463422       0.118486
       2.990000       0.566609       1.498613       0.117802
       3.000000       0.594613       1.526411       0.117319
       3.010000       0.624970       1.545724       0.117050
       3.020000       0.657814       1.555881       0.116989
       3.030000       0.693220       1.556772       0.117106
       3.040000       0.731150       1.548981       0.117349
       3.050000       0.771415       1.533815       0.117653
       3.060000       0.813645       1.513197       0.117951
       3.070000       0.857315       1.489416       0.118189
       3.080000       0.901798       1.464801       0.118337
       3.090000       0.946449       1.441430       0.118388
       3.100000       0.990680       1.420922       0.118343
       3.110000       1.033977       1.404353       0.118199
       3.120000       1.075883       1.392287       0.117931
       3.130000       1.115986       1.384877       0.117502
       3.140000       1.153964       1.382010       0.116875
       3.150000       1.189692       1.383424       0.116034
       3.160000       1.223342       1.388793       0.114999
       3.170000       1.255383       1.397767       0.113826
       3.180000       1.286450       1.410006       0.112594
       3.190000       1.317116       1.425187       0.111384
       3.200000       1.347683       1.443033       0.110250
       3.210000       1.378061       1.463338       0.109212
       3.220000       1.407786       1.485981       0.108250
       3.230000       1.436109       1.510923       0.107322
       3.240000       1.462077       1.538133       0.106379
       3.250000       1.484561       1.567451       0.105394
       3.260000       1.502219       1.598430       0.104371
