  # energy grid [eV]     epsi_x  epsi_y  epsi_z
       0.000000            NaN            NaN            NaN
       0.010000       0.002857       0.001868       8.755238
       0.020000       0.005716       0.003739       5.247724
       0.030000       0.008584       0.005620       4.099572
       0.040000       0.011464       0.007512       3.451942
       0.050000       0.014359       0.009422       2.997066
       0.060000       0.017273       0.011353       2.645261
       0.070000       0.020212       0.013311       2.357752
       0.080000       0.023179       0.015300       2.113342
       0.090000       0.026180       0.017325       1.899331
       0.100000       0.029219       0.019393       1.708139
       0.110000       0.032301       0.021508       1.535507
       0.120000       0.035432       0.023679       1.379207
       0.130000       0.038619       0.025911       1.238080
       0.140000       0.041867       0.028213       1.111376
       0.150000       0.045185       0.030592       0.998387
       0.160000       0.048579       0.033060       0.898292
       0.170000       0.052058       0.035625       0.810148
       0.180000       0.055631       0.038299       0.732930
       0.190000       0.059307       0.041096       0.665587
       0.200000       0.063095       0.044029       0.607088
       0.210000       0.067006       0.047114       0.556457
       0.220000       0.071048       0.050369       0.512778
       0.230000       0.075229       0.053814       0.475202
       0.240000       0.079557       0.057470       0.442937
       0.250000       0.084034       0.061359       0.415234
       0.260000       0.088662       0.065507       0.391380
       0.270000       0.093440       0.069940       0.370687
       0.280000       0.098364       0.074683       0.352492
       0.290000       0.103427       0.079761       0.336155
       0.300000       0.108622       0.085199       0.321079
       0.310000       0.113941       0.091019       0.306742
       0.320000       0.119374       0.097243       0.292746
       0.330000       0.124912       0.103896       0.278861
       0.340000       0.130552       0.111010       0.265049
       0.350000       0.136307       0.118629       0.251435
       0.360000       0.142204       0.126807       0.238250
       0.370000       0.148292       0.135609       0.225763
       0.380000       0.154634       0.145099       0.214215
       0.390000       0.161296       0.155325       0.203785
       0.400000       0.168343       0.166300       0.194576
       0.410000       0.175824       0.177993       0.186615
       0.420000       0.183766       0.190317       0.179860
       0.430000       0.192160       0.203133       0.174209
       0.440000       0.200959       0.216259       0.169510
       0.450000       0.210064       0.229488       0.165567
       0.460000       0.219325       0.242617       0.162161
       0.470000       0.228549       0.255459       0.159068
       0.480000       0.237521       0.267879       0.156089
       0.490000       0.246045       0.279813       0.153077
       0.500000       0.253989       0.291294       0.149963
       0.510000       0.261328       0.302454       0.146765
       0.520000       0.268150       0.313491       0.143570
       0.530000       0.274640       0.324597       0.140509
       0.540000       0.281033       0.335868       0.137722
       0.550000       0.287566       0.347240       0.135327
       0.560000       0.294450       0.358451       0.133401
       0.570000       0.301847       0.369083       0.131968
       0.580000       0.309884       0.378662       0.131001
       0.590000       0.318661       0.386784       0.130423
       0.600000       0.328268       0.393250       0.130123
       0.610000       0.338799       0.398142       0.129975
       0.620000       0.350356       0.401836       0.129868
       0.630000       0.363046       0.404948       0.129730
       0.640000       0.376977       0.408244       0.129544
       0.650000       0.392259       0.412526       0.129337
       0.660000       0.408994       0.418522       0.129158
       0.670000       0.427280       0.426811       0.129052
       0.680000       0.447195       0.437754       0.129045
       0.690000       0.468796       0.451453       0.129130
       0.700000       0.492101       0.467707       0.129273
       0.710000       0.517069       0.485976       0.129404
       0.720000       0.543580       0.505356       0.129426
       0.730000       0.571428       0.524600       0.129216
       0.740000       0.600318       0.542214       0.128648
       0.750000       0.629901       0.556652       0.127620
       0.760000       0.659845       0.566578       0.126078
       0.770000       0.689930       0.571153       0.124028
       0.780000       0.720145       0.570225       0.121524
       0.790000       0.750749       0.564362       0.118645
       0.800000       0.782268       0.554718       0.115473
       0.810000       0.815436       0.542790       0.112076
       0.820000       0.851095       0.530136       0.108515
       0.830000       0.890120       0.518157       0.104852
       0.840000       0.933357       0.507951       0.101166
       0.850000       0.981611       0.500256       0.097556
       0.860000       1.035660       0.495448       0.094135
       0.870000       1.096279       0.493552       0.091018
       0.880000       1.164275       0.494269       0.088305
       0.890000       1.240519       0.496997       0.086077
       0.900000       1.325966       0.500877       0.084386
       0.910000       1.421677       0.504881       0.083262
       0.920000       1.528824       0.507958       0.082707
       0.930000       1.648688       0.509235       0.082701
       0.940000       1.782642       0.508208       0.083198
       0.950000       1.932118       0.504865       0.084121
       0.960000       2.098557       0.499674       0.085366
       0.970000       2.283338       0.493446       0.086800
       0.980000       2.487702       0.487143       0.088273
       0.990000       2.712639       0.481695       0.089633
       1.000000       2.958735       0.477876       0.090757
       1.010000       3.225915       0.476249       0.091568
       1.020000       3.513040       0.477155       0.092057
       1.030000       3.817350       0.480732       0.092278
       1.040000       4.133866       0.486932       0.092338
       1.050000       4.454995       0.495551       0.092361
       1.060000       4.770656       0.506246       0.092462
       1.070000       5.069185       0.518584       0.092716
       1.080000       5.338952       0.532095       0.093143
       1.090000       5.570244       0.546339       0.093703
       1.100000       5.756735       0.560973       0.094308
       1.110000       5.896042       0.575792       0.094842
       1.120000       5.989398       0.590753       0.095203
       1.130000       6.040895       0.605976       0.095325
       1.140000       6.056659       0.621745       0.095208
       1.150000       6.043963       0.638480       0.094912
       1.160000       6.010062       0.656691       0.094543
       1.170000       5.960847       0.676897       0.094215
       1.180000       5.899777       0.699538       0.094018
       1.190000       5.827697       0.724906       0.093989
       1.200000       5.743705       0.753104       0.094104
       1.210000       5.646633       0.784015       0.094273
       1.220000       5.536272       0.817273       0.094359
       1.230000       5.413596       0.852227       0.094206
       1.240000       5.279921       0.887922       0.093667
       1.250000       5.135595       0.923159       0.092643
       1.260000       4.979154       0.956670       0.091103
       1.270000       4.807586       0.987418       0.089100
       1.280000       4.617669       1.014935       0.086755
       1.290000       4.407759       1.039552       0.084238
       1.300000       4.179096       1.062416       0.081731
       1.310000       3.936004       1.085257       0.079401
       1.320000       3.685002       1.110008       0.077384
       1.330000       3.433378       1.138393       0.075779
       1.340000       3.187891       1.171603       0.074642
       1.350000       2.953965       1.210074       0.073998
       1.360000       2.735425       1.253384       0.073838
       1.370000       2.534578       1.300265       0.074122
       1.380000       2.352478       1.348742       0.074779
       1.390000       2.189218       1.396418       0.075707
       1.400000       2.044202       1.440860       0.076778
       1.410000       1.916358       1.479996       0.077847
       1.420000       1.804291       1.512375       0.078777
       1.430000       1.706367       1.537235       0.079464
       1.440000       1.620771       1.554435       0.079859
       1.450000       1.545530       1.564383       0.079982
       1.460000       1.478570       1.568071       0.079908
       1.470000       1.417820       1.567140       0.079749
       1.480000       1.361376       1.563857       0.079613
       1.490000       1.307713       1.560886       0.079589
       1.500000       1.255859       1.560886       0.079722
       1.510000       1.205461       1.566069       0.080013
       1.520000       1.156706       1.577818       0.080427
       1.530000       1.110136       1.596446       0.080906
       1.540000       1.066420       1.621122       0.081381
       1.550000       1.026180       1.649976       0.081795
       1.560000       0.989888       1.680415       0.082110
       1.570000       0.957835       1.709669       0.082328
       1.580000       0.930156       1.735466       0.082487
       1.590000       0.906865       1.756671       0.082659
       1.600000       0.887900       1.773611       0.082927
       1.610000       0.873156       1.787951       0.083369
       1.620000       0.862514       1.802171       0.084029
       1.630000       0.855855       1.818840       0.084905
       1.640000       0.853074       1.839953       0.085942
       1.650000       0.854072       1.866478       0.087041
       1.660000       0.858743       1.898150       0.088075
       1.670000       0.866938       1.933511       0.088919
       1.680000       0.878431       1.970147       0.089481
       1.690000       0.892891       2.005080       0.089721
       1.700000       0.909890       2.035242       0.089656
       1.710000       0.928958       2.057974       0.089344
       1.720000       0.949675       2.071481       0.088860
       1.730000       0.971776       2.075207       0.088266
       1.740000       0.995215       2.070026       0.087601
       1.750000       1.020139       2.058148       0.086871
       1.760000       1.046792       2.042683       0.086068
       1.770000       1.075379       2.027016       0.085183
       1.780000       1.105973       2.014180       0.084230
       1.790000       1.138517       2.006450       0.083253
       1.800000       1.172923       2.005209       0.082329
       1.810000       1.209208       2.011022       0.081552
       1.820000       1.247582       2.023769       0.081014
       1.830000       1.288403       2.042749       0.080786
       1.840000       1.332019       2.066714       0.080910
       1.850000       1.378538       2.093924       0.081385
       1.860000       1.427662       2.122273       0.082176
       1.870000       1.478647       2.149521       0.083211
       1.880000       1.530436       2.173552       0.084400
       1.890000       1.581890       2.192595       0.085643
       1.900000       1.632029       2.205331       0.086851
       1.910000       1.680189       2.210904       0.087962
       1.920000       1.726030       2.208871       0.088944
       1.930000       1.769461       2.199172       0.089801
       1.940000       1.810521       2.182146       0.090562
       1.950000       1.849322       2.158532       0.091278
       1.960000       1.886056       2.129423       0.092006
       1.970000       1.921060       2.096144       0.092797
       1.980000       1.954840       2.060131       0.093695
       1.990000       1.988023       2.022840       0.094728
       2.000000       2.021224       1.985652       0.095910
       2.010000       2.054933       1.949719       0.097246
       2.020000       2.089457       1.915745       0.098728
       2.030000       2.124948       1.883818       0.100350
       2.040000       2.161411       1.853401       0.102112
       2.050000       2.198644       1.823561       0.104031
       2.060000       2.236114       1.793359       0.106144
       2.070000       2.272832       1.762218       0.108504
       2.080000       2.307290       1.730092       0.111164
       2.090000       2.337474       1.697353       0.114161
       2.100000       2.360897       1.664507       0.117502
       2.110000       2.374666       1.631917       0.121156
       2.120000       2.375645       1.599715       0.125062
       2.130000       2.360774       1.567906       0.129127
       2.140000       2.327539       1.536574       0.133241
       2.150000       2.274531       1.506026       0.137269
       2.160000       2.201924       1.476788       0.141056
       2.170000       2.111689       1.449470       0.144437
       2.180000       2.007405       1.424591       0.147250
       2.190000       1.893691       1.402449       0.149369
       2.200000       1.775440       1.383064       0.150716
       2.210000       1.657122       1.366179       0.151264
       2.220000       1.542322       1.351285       0.151021
       2.230000       1.433578       1.337626       0.150011
       2.240000       1.332432       1.324204       0.148271
       2.250000       1.239621       1.309836       0.145858
       2.260000       1.155308       1.293303       0.142868
       2.270000       1.079294       1.273579       0.139455
       2.280000       1.011192       1.250070       0.135820
       2.290000       0.950534       1.222752       0.132196
       2.300000       0.896814       1.192152       0.128813
       2.310000       0.849493       1.159208       0.125873
       2.320000       0.807984       1.125061       0.123526
       2.330000       0.771623       1.090827       0.121862
       2.340000       0.739659       1.057411       0.120910
       2.350000       0.711258       1.025370       0.120637
       2.360000       0.685540       0.994895       0.120963
       2.370000       0.661651       0.965895       0.121767
       2.380000       0.638867       0.938178       0.122917
       2.390000       0.616686       0.911647       0.124287
       2.400000       0.594885       0.886430       0.125784
       2.410000       0.573504       0.862904       0.127360
       2.420000       0.552777       0.841621       0.129007
       2.430000       0.533030       0.823194       0.130744
       2.440000       0.514597       0.808201       0.132592
       2.450000       0.497765       0.797126       0.134571
       2.460000       0.482751       0.790334       0.136691
       2.470000       0.469703       0.788054       0.138959
       2.480000       0.458703       0.790368       0.141384
       2.490000       0.449782       0.797183       0.143980
       2.500000       0.442916       0.808195       0.146752
       2.510000       0.438037       0.822845       0.149689
       2.520000       0.435024       0.840291       0.152747
       2.530000       0.433705       0.859404       0.155834
       2.540000       0.433849       0.878836       0.158810
       2.550000       0.435168       0.897175       0.161497
       2.560000       0.437326       0.913175       0.163699
       2.570000       0.439954       0.926001       0.165227
       2.580000       0.442685       0.935393       0.165921
       2.590000       0.445198       0.941688       0.165671
       2.600000       0.447277       0.945674       0.164437
       2.610000       0.448862       0.948354       0.162261
       2.620000       0.450077       0.950682       0.159270
       2.630000       0.451222       0.953361       0.155668
       2.640000       0.452722       0.956748       0.151695
       2.650000       0.455060       0.960890       0.147587
       2.660000       0.458696       0.965693       0.143538
       2.670000       0.464019       0.971156       0.139670
       2.680000       0.471297       0.977572       0.136031
       2.690000       0.480658       0.985621       0.132609
       2.700000       0.492082       0.996306       0.129362
       2.710000       0.505412       1.010770       0.126251
       2.720000       0.520381       1.030094       0.123268
       2.730000       0.536674       1.055117       0.120440
       2.740000       0.553991       1.086318       0.117816
       2.750000       0.572110       1.123750       0.115452
       2.760000       0.590902       1.166978       0.113390
       2.770000       0.610289       1.215018       0.111649
       2.780000       0.630172       1.266241       0.110230
       2.790000       0.650360       1.318290       0.109126
       2.800000       0.670544       1.368041       0.108333
       2.810000       0.690321       1.411728       0.107860
       2.820000       0.709269       1.445310       0.107723
       2.830000       0.727000       1.465118       0.107940
       2.840000       0.743183       1.468634       0.108522
       2.850000       0.757509       1.455123       0.109461
       2.860000       0.769606       1.425828       0.110728
       2.870000       0.778976       1.383624       0.112271
       2.880000       0.784976       1.332281       0.114017
       2.890000       0.786866       1.275658       0.115886
       2.900000       0.783909       1.217105       0.117801
       2.910000       0.775509       1.159194       0.119701
       2.920000       0.761350       1.103718       0.121550
       2.930000       0.741525       1.051833       0.123350
       2.940000       0.716602       1.004220       0.125136
       2.950000       0.687595       0.961201       0.126976
       2.960000       0.655833       0.922819       0.128942
       2.970000       0.622757       0.888902       0.131093
       2.980000       0.589710       0.859124       0.133442
       2.990000       0.557772       0.833064       0.135947
       3.000000       0.527686       0.810226       0.138507
       3.010000       0.499849       0.790057       0.140977
       3.020000       0.474367       0.771951       0.143191
       3.030000       0.451140       0.755298       0.144983
       3.040000       0.429951       0.739557       0.146204
       3.050000       0.410556       0.724333       0.146724
       3.060000       0.392731       0.709407       0.146442
       3.070000       0.376307       0.694703       0.145299
       3.080000       0.361167       0.680208       0.143295
       3.090000       0.347234       0.665909       0.140507
       3.100000       0.334458       0.651769       0.137082
       3.110000       0.322812       0.637780       0.133223
       3.120000       0.312286       0.624024       0.129148
       3.130000       0.302887       0.610733       0.125061
       3.140000       0.294636       0.598274       0.121128
       3.150000       0.287558       0.587089       0.117466
       3.160000       0.281673       0.577608       0.114148
       3.170000       0.276977       0.570172       0.111219
       3.180000       0.273439       0.564991       0.108699
       3.190000       0.270983       0.562131       0.106603
       3.200000       0.269488       0.561523       0.104933
       3.210000       0.268774       0.562971       0.103683
       3.220000       0.268606       0.566173       0.102832
       3.230000       0.268704       0.570731       0.102346
       3.240000       0.268769       0.576191       0.102183
       3.250000       0.268522       0.582102       0.102301
       3.260000       0.267750       0.588081       0.102666
