  # energy grid [eV]     epsi_x  epsi_y  epsi_z
       0.000000            NaN            NaN            NaN
       0.010000       0.656364       0.002309       0.000329
       0.020000       1.317877       0.004621       0.000659
       0.030000       1.989779       0.006938       0.000992
       0.040000       2.677493       0.009262       0.001328
       0.050000       3.386721       0.011597       0.001670
       0.060000       4.123549       0.013946       0.002018
       0.070000       4.894555       0.016310       0.002374
       0.080000       5.706941       0.018693       0.002739
       0.090000       6.568659       0.021098       0.003115
       0.100000       7.488569       0.023528       0.003504
       0.110000       8.476598       0.025985       0.003908
       0.120000       9.543920       0.028474       0.004329
       0.130000      10.703140       0.030998       0.004768
       0.140000      11.968468       0.033560       0.005230
       0.150000      13.355884       0.036165       0.005715
       0.160000      14.883225       0.038817       0.006229
       0.170000      16.570171       0.041519       0.006773
       0.180000      18.438021       0.044277       0.007353
       0.190000      20.509126       0.047096       0.007973
       0.200000      22.805802       0.049981       0.008637
       0.210000      25.348459       0.052938       0.009352
       0.220000      28.152660       0.055973       0.010124
       0.230000      31.224836       0.059094       0.010962
       0.240000      34.556555       0.062308       0.011872
       0.250000      38.117668       0.065623       0.012866
       0.260000      41.849406       0.069047       0.013954
       0.270000      45.659438       0.072592       0.015150
       0.280000      49.421669       0.076268       0.016466
       0.290000      52.983289       0.080086       0.017920
       0.300000      56.179913       0.084060       0.019527
       0.310000      58.856926       0.088205       0.021307
       0.320000      60.892929       0.092538       0.023278
       0.330000      62.220257       0.097076       0.025458
       0.340000      62.837564       0.101840       0.027861
       0.350000      62.809734       0.106853       0.030498
       0.360000      62.252527       0.112141       0.033368
       0.370000      61.304537       0.117734       0.036462
       0.380000      60.095213       0.123663       0.039752
       0.390000      58.720233       0.129968       0.043200
       0.400000      57.232536       0.136690       0.046755
       0.410000      55.650567       0.143879       0.050365
       0.420000      53.978169       0.151589       0.053991
       0.430000      52.226010       0.159885       0.057607
       0.440000      50.424489       0.168838       0.061205
       0.450000      48.623114       0.178532       0.064773
       0.460000      46.878507       0.189064       0.068274
       0.470000      45.238064       0.200540       0.071612
       0.480000      43.726773       0.213088       0.074627
       0.490000      42.341897       0.226847       0.077091
       0.500000      41.056789       0.241978       0.078748
       0.510000      39.832248       0.258657       0.079370
       0.520000      38.631445       0.277081       0.078815
       0.530000      37.432904       0.297455       0.077080
       0.540000      36.236434       0.319989       0.074297
       0.550000      35.059914       0.344883       0.070709
       0.560000      33.929097       0.372296       0.066604
       0.570000      32.865370       0.402314       0.062269
       0.580000      31.876493       0.434891       0.057942
       0.590000      30.953324       0.469782       0.053800
       0.600000      30.073102       0.506472       0.049959
       0.610000      29.207609       0.544112       0.046482
       0.620000      28.332824       0.581508       0.043393
       0.630000      27.435920       0.617205       0.040692
       0.640000      26.516571       0.649674       0.038358
       0.650000      25.582372       0.677609       0.036362
       0.660000      24.641170       0.700206       0.034669
       0.670000      23.694417       0.717327       0.033242
       0.680000      22.734777       0.729427       0.032041
       0.690000      21.748927       0.737274       0.031026
       0.700000      20.724004       0.741580       0.030159
       0.710000      19.654488       0.742705       0.029406
       0.720000      18.546225       0.740560       0.028740
       0.730000      17.415985       0.734743       0.028146
       0.740000      16.287346       0.724837       0.027617
       0.750000      15.185232       0.710738       0.027156
       0.760000      14.131378       0.692870       0.026771
       0.770000      13.141829       0.672188       0.026474
       0.780000      12.226389       0.649999       0.026275
       0.790000      11.389369       0.627713       0.026184
       0.800000      10.630886       0.606606       0.026206
       0.810000       9.948227       0.587698       0.026347
       0.820000       9.337007       0.571705       0.026609
       0.830000       8.792035       0.559069       0.026999
       0.840000       8.307916       0.550010       0.027527
       0.850000       7.879429       0.544581       0.028207
       0.860000       7.501743       0.542712       0.029057
       0.870000       7.170529       0.544227       0.030096
       0.880000       6.881993       0.548854       0.031344
       0.890000       6.632869       0.556226       0.032821
       0.900000       6.420386       0.565878       0.034544
       0.910000       6.242230       0.577265       0.036528
       0.920000       6.096506       0.589813       0.038782
       0.930000       5.981725       0.602980       0.041305
       0.940000       5.896815       0.616343       0.044083
       0.950000       5.841150       0.629648       0.047078
       0.960000       5.814580       0.642827       0.050222
       0.970000       5.817416       0.655956       0.053410
       0.980000       5.850336       0.669190       0.056502
       0.990000       5.914187       0.682698       0.059329
       1.000000       6.009690       0.696640       0.061717
       1.010000       6.137049       0.711163       0.063516
       1.020000       6.295496       0.726411       0.064632
       1.030000       6.482810       0.742513       0.065044
       1.040000       6.694895       0.759525       0.064796
       1.050000       6.925587       0.777369       0.063978
       1.060000       7.166875       0.795792       0.062690
       1.070000       7.409694       0.814397       0.061023
       1.080000       7.645197       0.832742       0.059047
       1.090000       7.866174       0.850477       0.056824
       1.100000       8.068133       0.867463       0.054418
       1.110000       8.249678       0.883832       0.051906
       1.120000       8.412147       0.899976       0.049377
       1.130000       8.558769       0.916474       0.046918
       1.140000       8.693644       0.933995       0.044606
       1.150000       8.820836       0.953193       0.042500
       1.160000       8.943776       0.974618       0.040635
       1.170000       9.065051       0.998641       0.039023
       1.180000       9.186463       1.025396       0.037657
       1.190000       9.309082       1.054741       0.036511
       1.200000       9.433179       1.086219       0.035547
       1.210000       9.558118       1.119058       0.034716
       1.220000       9.682363       1.152228       0.033965
       1.230000       9.803567       1.184595       0.033247
       1.240000       9.918547       1.215150       0.032527
       1.250000      10.023064       1.243274       0.031789
       1.260000      10.111504       1.268919       0.031039
       1.270000      10.176653       1.292611       0.030296
       1.280000      10.209656       1.315232       0.029591
       1.290000      10.200221       1.337663       0.028956
       1.300000      10.137204       1.360406       0.028420
       1.310000      10.009761       1.383323       0.028005
       1.320000       9.809106       1.405586       0.027726
       1.330000       9.530620       1.425868       0.027589
       1.340000       9.175732       1.442743       0.027598
       1.350000       8.752816       1.455194       0.027751
       1.360000       8.276557       1.463033       0.028042
       1.370000       7.765780       1.467088       0.028463
       1.380000       7.240443       1.469072       0.029005
       1.390000       6.718776       1.471227       0.029659
       1.400000       6.215352       1.475917       0.030420
       1.410000       5.740318       1.485304       0.031287
       1.420000       5.299600       1.501180       0.032263
       1.430000       4.895673       1.524933       0.033352
       1.440000       4.528516       1.557593       0.034554
       1.450000       4.196513       1.599911       0.035863
       1.460000       3.897174       1.652427       0.037257
       1.470000       3.627646       1.715504       0.038703
       1.480000       3.385028       1.789335       0.040160
       1.490000       3.166533       1.873917       0.041586
       1.500000       2.969554       1.969024       0.042952
       1.510000       2.791678       2.074201       0.044249
       1.520000       2.630685       2.188833       0.045491
       1.530000       2.484557       2.312299       0.046709
       1.540000       2.351496       2.444215       0.047935
       1.550000       2.229947       2.584656       0.049187
       1.560000       2.118607       2.734266       0.050455
       1.570000       2.016420       2.894139       0.051698
       1.580000       1.922533       3.065521       0.052850
       1.590000       1.836255       3.249443       0.053833
       1.600000       1.757001       3.446464       0.054585
       1.610000       1.684261       3.656633       0.055070
       1.620000       1.617575       3.879663       0.055294
       1.630000       1.556521       4.115178       0.055289
       1.640000       1.500714       4.362829       0.055099
       1.650000       1.449802       4.622056       0.054754
       1.660000       1.403464       4.891407       0.054259
       1.670000       1.361405       5.167508       0.053592
       1.680000       1.323350       5.444041       0.052717
       1.690000       1.289024       5.711224       0.051607
       1.700000       1.258146       5.956259       0.050262
       1.710000       1.230400       6.164983       0.048719
       1.720000       1.205428       6.324542       0.047045
       1.730000       1.182818       6.426424       0.045326
       1.740000       1.162120       6.468877       0.043648
       1.750000       1.142883       6.457793       0.042086
       1.760000       1.124722       6.405672       0.040697
       1.770000       1.107382       6.329049       0.039518
       1.780000       1.090791       6.245339       0.038573
       1.790000       1.075061       6.170139       0.037868
       1.800000       1.060440       6.115610       0.037402
       1.810000       1.047235       6.090049       0.037166
       1.820000       1.035743       6.098343       0.037148
       1.830000       1.026195       6.142885       0.037328
       1.840000       1.018748       6.224521       0.037687
       1.850000       1.013479       6.343253       0.038203
       1.860000       1.010411       6.498529       0.038856
       1.870000       1.009516       6.689077       0.039631
       1.880000       1.010731       6.912349       0.040519
       1.890000       1.013974       7.163707       0.041515
       1.900000       1.019166       7.435534       0.042619
       1.910000       1.026258       7.716528       0.043827
       1.920000       1.035242       7.991456       0.045127
       1.930000       1.046138       8.241656       0.046493
       1.940000       1.058960       8.446447       0.047884
       1.950000       1.073687       8.585382       0.049241
       1.960000       1.090270       8.641111       0.050499
       1.970000       1.108663       8.602327       0.051595
       1.980000       1.128857       8.466104       0.052475
       1.990000       1.150898       8.238836       0.053105
       2.000000       1.174851       7.935236       0.053470
       2.010000       1.200752       7.575564       0.053573
       2.020000       1.228569       7.181941       0.053442
       2.030000       1.258208       6.774959       0.053127
       2.040000       1.289530       6.371464       0.052700
       2.050000       1.322352       5.983792       0.052250
       2.060000       1.356408       5.620118       0.051869
       2.070000       1.391292       5.285348       0.051646
       2.080000       1.426416       4.982011       0.051657
       2.090000       1.461016       4.710906       0.051962
       2.100000       1.494164       4.471483       0.052605
       2.110000       1.524791       4.262089       0.053613
       2.120000       1.551689       4.080195       0.055003
       2.130000       1.573522       3.922627       0.056773
       2.140000       1.588847       3.785780       0.058908
       2.150000       1.596154       3.665757       0.061368
       2.160000       1.593942       3.558466       0.064091
       2.170000       1.580856       3.459769       0.066984
       2.180000       1.555903       3.365781       0.069924
       2.190000       1.518724       3.273335       0.072764
       2.200000       1.469836       3.180485       0.075344
       2.210000       1.410731       3.086837       0.077513
       2.220000       1.343761       2.993549       0.079151
       2.230000       1.271798       2.902967       0.080183
       2.240000       1.197796       2.818018       0.080598
       2.250000       1.124388       2.741570       0.080437
       2.260000       1.053628       2.675940       0.079787
       2.270000       0.986907       2.622627       0.078756
       2.280000       0.925005       2.582262       0.077462
       2.290000       0.868215       2.554716       0.076010
       2.300000       0.816502       2.539298       0.074493
       2.310000       0.769628       2.534996       0.072990
       2.320000       0.727266       2.540723       0.071572
       2.330000       0.689059       2.555554       0.070303
       2.340000       0.654653       2.578927       0.069242
       2.350000       0.623713       2.610748       0.068436
       2.360000       0.595917       2.651352       0.067913
       2.370000       0.570959       2.701294       0.067679
       2.380000       0.548543       2.761041       0.067722
       2.390000       0.528385       2.830681       0.068008
       2.400000       0.510219       2.909760       0.068498
       2.410000       0.493802       2.997298       0.069146
       2.420000       0.478928       3.091952       0.069914
       2.430000       0.465425       3.192237       0.070770
       2.440000       0.453157       3.296695       0.071691
       2.450000       0.442007       3.403951       0.072652
       2.460000       0.431859       3.512652       0.073622
       2.470000       0.422578       3.621327       0.074559
       2.480000       0.414006       3.728215       0.075414
       2.490000       0.405963       3.831060       0.076132
       2.500000       0.398260       3.926887       0.076667
       2.510000       0.390736       4.011837       0.076989
       2.520000       0.383275       4.081112       0.077088
       2.530000       0.375829       4.129156       0.076980
       2.540000       0.368414       4.150119       0.076709
       2.550000       0.361096       4.138656       0.076345
       2.560000       0.353964       4.090959       0.075969
       2.570000       0.347112       4.005809       0.075668
       2.580000       0.340617       3.885256       0.075517
       2.590000       0.334529       3.734613       0.075571
       2.600000       0.328863       3.561632       0.075859
       2.610000       0.323596       3.375122       0.076383
       2.620000       0.318672       3.183469       0.077116
       2.630000       0.314010       2.993517       0.078019
       2.640000       0.309526       2.810054       0.079049
       2.650000       0.305156       2.635875       0.080177
       2.660000       0.300878       2.472235       0.081395
       2.670000       0.296713       2.319448       0.082721
       2.680000       0.292727       2.177427       0.084188
       2.690000       0.289008       2.046045       0.085831
       2.700000       0.285651       1.925285       0.087670
       2.710000       0.282734       1.815220       0.089697
       2.720000       0.280316       1.715917       0.091863
       2.730000       0.278431       1.627341       0.094084
       2.740000       0.277090       1.549304       0.096252
       2.750000       0.276287       1.481462       0.098255
       2.760000       0.276008       1.423336       0.100001
       2.770000       0.276236       1.374345       0.101434
       2.780000       0.276952       1.333820       0.102538
       2.790000       0.278126       1.301000       0.103328
       2.800000       0.279711       1.275010       0.103841
       2.810000       0.281630       1.254836       0.104125
       2.820000       0.283776       1.239309       0.104227
       2.830000       0.286020       1.227135       0.104195
       2.840000       0.288239       1.216969       0.104074
       2.850000       0.290339       1.207551       0.103916
       2.860000       0.292282       1.197874       0.103783
       2.870000       0.294090       1.187345       0.103756
       2.880000       0.295832       1.175877       0.103933
       2.890000       0.297595       1.163869       0.104417
       2.900000       0.299462       1.152060       0.105300
       2.910000       0.301496       1.141317       0.106647
       2.920000       0.303738       1.132402       0.108490
       2.930000       0.306209       1.125798       0.110821
       2.940000       0.308911       1.121626       0.113592
       2.950000       0.311828       1.119653       0.116727
       2.960000       0.314928       1.119389       0.120119
       2.970000       0.318179       1.120240       0.123637
       2.980000       0.321573       1.121675       0.127129
       2.990000       0.325144       1.123346       0.130425
       3.000000       0.328971       1.125131       0.133348
       3.010000       0.333152       1.127098       0.135726
       3.020000       0.337760       1.129440       0.137411
       3.030000       0.342799       1.132423       0.138296
       3.040000       0.348179       1.136372       0.138335
       3.050000       0.353715       1.141696       0.137552
       3.060000       0.359150       1.148898       0.136044
       3.070000       0.364175       1.158538       0.133969
       3.080000       0.368445       1.171159       0.131530
       3.090000       0.371588       1.187199       0.128945
       3.100000       0.373218       1.206945       0.126424
       3.110000       0.372973       1.230528       0.124147
       3.120000       0.370570       1.257963       0.122253
       3.130000       0.365881       1.289168       0.120838
       3.140000       0.358977       1.323954       0.119960
       3.150000       0.350133       1.361988       0.119653
       3.160000       0.339778       1.402770       0.119929
       3.170000       0.328425       1.445667       0.120781
       3.180000       0.316582       1.490021       0.122182
       3.190000       0.304698       1.535248       0.124080
       3.200000       0.293132       1.580893       0.126394
       3.210000       0.282147       1.626597       0.129012
       3.220000       0.271916       1.672003       0.131790
       3.230000       0.262529       1.716662       0.134571
       3.240000       0.254009       1.759960       0.137187
       3.250000       0.246326       1.801062       0.139490
       3.260000       0.239417       1.838875       0.141368
