  # energy grid [eV]     epsi_x  epsi_y  epsi_z
       0.000000            NaN            NaN            NaN
       0.010000       0.003138       0.001855       0.037480
       0.020000       0.006280       0.003712       0.065782
       0.030000       0.009431       0.005574       0.083221
       0.040000       0.012596       0.007442       0.092945
       0.050000       0.015779       0.009319       0.098478
       0.060000       0.018985       0.011208       0.102151
       0.070000       0.022218       0.013110       0.105168
       0.080000       0.025484       0.015028       0.108000
       0.090000       0.028788       0.016965       0.110704
       0.100000       0.032135       0.018923       0.113127
       0.110000       0.035530       0.020904       0.115050
       0.120000       0.038980       0.022912       0.116285
       0.130000       0.042490       0.024950       0.116740
       0.140000       0.046067       0.027020       0.116446
       0.150000       0.049718       0.029125       0.115559
       0.160000       0.053449       0.031270       0.114328
       0.170000       0.057269       0.033456       0.113055
       0.180000       0.061187       0.035689       0.112049
       0.190000       0.065210       0.037972       0.111585
       0.200000       0.069348       0.040309       0.111879
       0.210000       0.073612       0.042705       0.113068
       0.220000       0.078014       0.045165       0.115201
       0.230000       0.082565       0.047693       0.118233
       0.240000       0.087279       0.050297       0.122011
       0.250000       0.092170       0.052980       0.126265
       0.260000       0.097256       0.055751       0.130610
       0.270000       0.102553       0.058617       0.134561
       0.280000       0.108081       0.061584       0.137586
       0.290000       0.113861       0.064663       0.139188
       0.300000       0.119917       0.067861       0.139013
       0.310000       0.126274       0.071189       0.136929
       0.320000       0.132959       0.074659       0.133057
       0.330000       0.139999       0.078281       0.127731
       0.340000       0.147426       0.082068       0.121416
       0.350000       0.155266       0.086035       0.114599
       0.360000       0.163547       0.090195       0.107717
       0.370000       0.172290       0.094564       0.101112
       0.380000       0.181510       0.099156       0.095020
       0.390000       0.191213       0.103988       0.089587
       0.400000       0.201395       0.109074       0.084883
       0.410000       0.212045       0.114433       0.080928
       0.420000       0.223157       0.120085       0.077706
       0.430000       0.234736       0.126052       0.075179
       0.440000       0.246821       0.132367       0.073295
       0.450000       0.259492       0.139070       0.071999
       0.460000       0.272874       0.146211       0.071232
       0.470000       0.287134       0.153849       0.070944
       0.480000       0.302467       0.162053       0.071093
       0.490000       0.319088       0.170896       0.071651
       0.500000       0.337222       0.180460       0.072601
       0.510000       0.357101       0.190832       0.073935
       0.520000       0.378969       0.202102       0.075656
       0.530000       0.403084       0.214363       0.077770
       0.540000       0.429727       0.227710       0.080291
       0.550000       0.459205       0.242232       0.083232
       0.560000       0.491856       0.258007       0.086600
       0.570000       0.528057       0.275095       0.090378
       0.580000       0.568221       0.293530       0.094517
       0.590000       0.612796       0.313315       0.098917
       0.600000       0.662254       0.334428       0.103438
       0.610000       0.717068       0.356833       0.107904
       0.620000       0.777674       0.380499       0.112131
       0.630000       0.844403       0.405424       0.115951
       0.640000       0.917375       0.431632       0.119230
       0.650000       0.996346       0.459162       0.121856
       0.660000       1.080512       0.488042       0.123727
       0.670000       1.168287       0.518258       0.124734
       0.680000       1.257100       0.549750       0.124761
       0.690000       1.343314       0.582425       0.123714
       0.700000       1.422352       0.616164       0.121562
       0.710000       1.489137       0.650829       0.118376
       0.720000       1.538867       0.686235       0.114332
       0.730000       1.567985       0.722129       0.109687
       0.740000       1.575050       0.758181       0.104738
       0.750000       1.561166       0.793997       0.099765
       0.760000       1.529757       0.829152       0.095007
       0.770000       1.485774       0.863229       0.090637
       0.780000       1.434680       0.895868       0.086772
       0.790000       1.381563       0.926858       0.083481
       0.800000       1.330597       0.956264       0.080798
       0.810000       1.284860       0.984555       0.078727
       0.820000       1.246412       1.012637       0.077253
       0.830000       1.216491       1.041756       0.076341
       0.840000       1.195749       1.073245       0.075936
       0.850000       1.184442       1.108211       0.075964
       0.860000       1.182593       1.147219       0.076332
       0.870000       1.190093       1.190062       0.076942
       0.880000       1.206769       1.235649       0.077698
       0.890000       1.232431       1.282062       0.078530
       0.900000       1.266893       1.326782       0.079401
       0.910000       1.309989       1.367111       0.080317
       0.920000       1.361577       1.400708       0.081320
       0.930000       1.421549       1.426137       0.082467
       0.940000       1.489861       1.443252       0.083808
       0.950000       1.566607       1.453281       0.085365
       0.960000       1.652134       1.458542       0.087119
       0.970000       1.747198       1.461861       0.089010
       0.980000       1.853075       1.465871       0.090944
       0.990000       1.971586       1.472381       0.092813
       1.000000       2.104992       1.481942       0.094517
       1.010000       2.255771       1.493673       0.095980
       1.020000       2.426325       1.505367       0.097171
       1.030000       2.618637       1.513906       0.098096
       1.040000       2.833880       1.515949       0.098800
       1.050000       3.071960       1.508773       0.099340
       1.060000       3.330972       1.491010       0.099761
       1.070000       3.606617       1.463018       0.100077
       1.080000       3.891717       1.426723       0.100265
       1.090000       4.176051       1.385047       0.100272
       1.100000       4.446793       1.341172       0.100044
       1.110000       4.689740       1.297940       0.099546
       1.120000       4.891238       1.257524       0.098776
       1.130000       5.040352       1.221376       0.097763
       1.140000       5.130514       1.190354       0.096543
       1.150000       5.159977       1.164907       0.095145
       1.160000       5.130926       1.145225       0.093582
       1.170000       5.047780       1.131337       0.091857
       1.180000       4.915714       1.123148       0.089972
       1.190000       4.740124       1.120457       0.087942
       1.200000       4.527068       1.122966       0.085802
       1.210000       4.284016       1.130255       0.083610
       1.220000       4.020074       1.141722       0.081443
       1.230000       3.745376       1.156503       0.079390
       1.240000       3.469894       1.173437       0.077535
       1.250000       3.202247       1.191138       0.075949
       1.260000       2.948942       1.208228       0.074681
       1.270000       2.714155       1.223688       0.073745
       1.280000       2.499940       1.237205       0.073132
       1.290000       2.306653       1.249372       0.072805
       1.300000       2.133437       1.261626       0.072715
       1.310000       1.978670       1.275964       0.072806
       1.320000       1.840365       1.294546       0.073029
       1.330000       1.716496       1.319311       0.073342
       1.340000       1.605244       1.351695       0.073719
       1.350000       1.505138       1.392425       0.074143
       1.360000       1.415096       1.441380       0.074612
       1.370000       1.334358       1.497468       0.075137
       1.380000       1.262390       1.558539       0.075745
       1.390000       1.198774       1.621400       0.076477
       1.400000       1.143133       1.682005       0.077388
       1.410000       1.095085       1.735917       0.078543
       1.420000       1.054223       1.779011       0.080001
       1.430000       1.020106       1.808307       0.081806
       1.440000       0.992249       1.822649       0.083980
       1.450000       0.970112       1.823019       0.086518
       1.460000       0.953081       1.812330       0.089393
       1.470000       0.940458       1.794806       0.092561
       1.480000       0.931448       1.775155       0.095978
       1.490000       0.925145       1.757812       0.099606
       1.500000       0.920530       1.746402       0.103416
       1.510000       0.916479       1.743440       0.107378
       1.520000       0.911817       1.750215       0.111444
       1.530000       0.905440       1.766774       0.115534
       1.540000       0.896498       1.791962       0.119524
       1.550000       0.884589       1.823562       0.123252
       1.560000       0.869869       1.858572       0.126527
       1.570000       0.853021       1.893697       0.129151
       1.580000       0.835094       1.925997       0.130939
       1.590000       0.817274       1.953545       0.131745
       1.600000       0.800685       1.975823       0.131493
       1.610000       0.786252       1.993655       0.130200
       1.620000       0.774641       2.008686       0.127989
       1.630000       0.766257       2.022644       0.125068
       1.640000       0.761278       2.036695       0.121704
       1.650000       0.759696       2.051137       0.118178
       1.660000       0.761373       2.065484       0.114741
       1.670000       0.766091       2.078790       0.111594
       1.680000       0.773585       2.090015       0.108876
       1.690000       0.783569       2.098246       0.106671
       1.700000       0.795749       2.102751       0.105028
       1.710000       0.809834       2.103010       0.103976
       1.720000       0.825577       2.098828       0.103538
       1.730000       0.842806       2.090554       0.103737
       1.740000       0.861468       2.079228       0.104594
       1.750000       0.881628       2.066488       0.106117
       1.760000       0.903448       2.054218       0.108291
       1.770000       0.927120       2.044070       0.111064
       1.780000       0.952792       2.037062       0.114343
       1.790000       0.980484       2.033390       0.117987
       1.800000       1.010035       2.032470       0.121821
       1.810000       1.041116       2.033151       0.125652
       1.820000       1.073335       2.034055       0.129307
       1.830000       1.106422       2.033966       0.132660
       1.840000       1.140419       2.032204       0.135661
       1.850000       1.175773       2.028810       0.138336
       1.860000       1.213269       2.024424       0.140763
       1.870000       1.253807       2.019817       0.143044
       1.880000       1.298096       2.015260       0.145270
       1.890000       1.346377       2.009974       0.147509
       1.900000       1.398270       2.001920       0.149804
       1.910000       1.452798       1.988075       0.152186
       1.920000       1.508591       1.965145       0.154688
       1.930000       1.564245       1.930524       0.157347
       1.940000       1.618688       1.883121       0.160198
       1.950000       1.671407       1.823737       0.163257
       1.960000       1.722406       1.754839       0.166508
       1.970000       1.771915       1.679889       0.169882
       1.980000       1.819997       1.602542       0.173253
       1.990000       1.866260       1.526010       0.176433
       2.000000       1.909860       1.452741       0.179191
       2.010000       1.949803       1.384399       0.181269
       2.020000       1.985439       1.322037       0.182410
       2.030000       2.016877       1.266316       0.182395
       2.040000       2.045109       1.217680       0.181091
       2.050000       2.071751       1.176441       0.178484
       2.060000       2.098551       1.142771       0.174705
       2.070000       2.126917       1.116653       0.170006
       2.080000       2.157689       1.097826       0.164719
       2.090000       2.191173       1.085728       0.159190
       2.100000       2.227340       1.079464       0.153723
       2.110000       2.265963       1.077799       0.148551
       2.120000       2.306624       1.079214       0.143820
       2.130000       2.348602       1.082051       0.139600
       2.140000       2.390760       1.084767       0.135903
       2.150000       2.431531       1.086241       0.132708
       2.160000       2.468947       1.086037       0.129971
       2.170000       2.500668       1.084494       0.127643
       2.180000       2.523965       1.082584       0.125681
       2.190000       2.535750       1.081581       0.124047
       2.200000       2.532731       1.082663       0.122719
       2.210000       2.511759       1.086570       0.121680
       2.220000       2.470349       1.093374       0.120922
       2.230000       2.407262       1.102394       0.120434
       2.240000       2.322985       1.112253       0.120205
       2.250000       2.219909       1.121064       0.120229
       2.260000       2.102082       1.126727       0.120505
       2.270000       1.974594       1.127307       0.121040
       2.280000       1.842783       1.121416       0.121846
       2.290000       1.711523       1.108530       0.122923
       2.300000       1.584762       1.089123       0.124257
       2.310000       1.465333       1.064577       0.125799
       2.320000       1.355000       1.036874       0.127472
       2.330000       1.254634       1.008165       0.129172
       2.340000       1.164428       0.980356       0.130783
       2.350000       1.084108       0.954804       0.132204
       2.360000       1.013099       0.932180       0.133373
       2.370000       0.950651       0.912471       0.134290
       2.380000       0.895915       0.895092       0.135016
       2.390000       0.847999       0.879086       0.135665
       2.400000       0.806003       0.863357       0.136364
       2.410000       0.769050       0.846898       0.137226
       2.420000       0.736328       0.828983       0.138316
       2.430000       0.707128       0.809280       0.139648
       2.440000       0.680882       0.787891       0.141182
       2.450000       0.657169       0.765310       0.142852
       2.460000       0.635695       0.742322       0.144584
       2.470000       0.616244       0.719861       0.146315
       2.480000       0.598625       0.698863       0.147986
       2.490000       0.582635       0.680169       0.149530
       2.500000       0.568051       0.664455       0.150842
       2.510000       0.554660       0.652218       0.151779
       2.520000       0.542308       0.643790       0.152172
       2.530000       0.530942       0.639360       0.151860
       2.540000       0.520631       0.638997       0.150738
       2.550000       0.511546       0.642651       0.148783
       2.560000       0.503911       0.650131       0.146067
       2.570000       0.497938       0.661053       0.142748
       2.580000       0.493777       0.674780       0.139036
       2.590000       0.491474       0.690375       0.135159
       2.600000       0.490954       0.706604       0.131326
       2.610000       0.492017       0.722022       0.127705
       2.620000       0.494357       0.735168       0.124403
       2.630000       0.497588       0.744813       0.121472
       2.640000       0.501306       0.750210       0.118915
       2.650000       0.505160       0.751224       0.116704
       2.660000       0.508928       0.748291       0.114798
       2.670000       0.512580       0.742226       0.113166
       2.680000       0.516294       0.733948       0.111799
       2.690000       0.520425       0.724226       0.110715
       2.700000       0.525415       0.713522       0.109957
       2.710000       0.531697       0.701958       0.109581
       2.720000       0.539604       0.689420       0.109634
       2.730000       0.549312       0.675744       0.110135
       2.740000       0.560820       0.660894       0.111062
       2.750000       0.573962       0.645071       0.112343
       2.760000       0.588431       0.628701       0.113860
       2.770000       0.603823       0.612335       0.115461
       2.780000       0.619681       0.596528       0.116978
       2.790000       0.635566       0.581747       0.118252
       2.800000       0.651125       0.568338       0.119156
       2.810000       0.666167       0.556548       0.119604
       2.820000       0.680696       0.546561       0.119564
       2.830000       0.694901       0.538551       0.119056
       2.840000       0.709084       0.532688       0.118141
       2.850000       0.723558       0.529131       0.116916
       2.860000       0.738556       0.527987       0.115500
       2.870000       0.754164       0.529279       0.114029
       2.880000       0.770316       0.532912       0.112638
       2.890000       0.786803       0.538677       0.111456
       2.900000       0.803298       0.546271       0.110592
       2.910000       0.819361       0.555339       0.110130
       2.920000       0.834408       0.565512       0.110125
       2.930000       0.847694       0.576422       0.110601
       2.940000       0.858327       0.587674       0.111555
       2.950000       0.865324       0.598794       0.112949
       2.960000       0.867711       0.609185       0.114723
       2.970000       0.864624       0.618130       0.116795
       2.980000       0.855442       0.624892       0.119081
       2.990000       0.839918       0.628874       0.121509
       3.000000       0.818289       0.629803       0.124021
       3.010000       0.791306       0.627836       0.126570
       3.020000       0.760151       0.623552       0.129095
       3.030000       0.726248       0.617818       0.131508
       3.040000       0.691034       0.611584       0.133682
       3.050000       0.655767       0.605676       0.135455
       3.060000       0.621407       0.600652       0.136657
       3.070000       0.588586       0.596731       0.137138
       3.080000       0.557642       0.593816       0.136800
       3.090000       0.528695       0.591572       0.135609
       3.100000       0.501739       0.589544       0.133602
       3.110000       0.476724       0.587279       0.130869
       3.120000       0.453603       0.584420       0.127537
       3.130000       0.432351       0.580757       0.123755
       3.140000       0.412945       0.576253       0.119682
       3.150000       0.395338       0.571022       0.115476
       3.160000       0.379440       0.565288       0.111286
       3.170000       0.365107       0.559305       0.107252
       3.180000       0.352159       0.553273       0.103491
       3.190000       0.340406       0.547284       0.100102
       3.200000       0.329679       0.541328       0.097158
       3.210000       0.319865       0.535359       0.094712
       3.220000       0.310909       0.529397       0.092799
       3.230000       0.302808       0.523609       0.091441
       3.240000       0.295581       0.518335       0.090651
       3.250000       0.289248       0.514043       0.090432
       3.260000       0.283803       0.511251       0.090779
