  # energy grid [eV]     epsi_x  epsi_y  epsi_z
       0.000000            NaN            NaN            NaN
       0.010000       0.296015       0.025140       0.740796
       0.020000       0.593831       0.050600       0.675526
       0.030000       0.895279       0.076703       0.719772
       0.040000       1.202240       0.103787       0.744979
       0.050000       1.516675       0.132203       0.737843
       0.060000       1.840658       0.162322       0.705667
       0.070000       2.176404       0.194534       0.658659
       0.080000       2.526310       0.229248       0.605153
       0.090000       2.892988       0.266879       0.550809
       0.100000       3.279317       0.307830       0.499049
       0.110000       3.688488       0.352457       0.451714
       0.120000       4.124066       0.401011       0.409627
       0.130000       4.590054       0.453557       0.372991
       0.140000       5.090967       0.509852       0.341655
       0.150000       5.631913       0.569196       0.315277
       0.160000       6.218686       0.630273       0.293421
       0.170000       6.857860       0.691025       0.275600
       0.180000       7.556890       0.748632       0.261304
       0.190000       8.324203       0.799699       0.250003
       0.200000       9.169269       0.840709       0.241160
       0.210000      10.102639       0.868697       0.234243
       0.220000      11.135908       0.881943       0.228758
       0.230000      12.281564       0.880417       0.224288
       0.240000      13.552682       0.865740       0.220523
       0.250000      14.962377       0.840687       0.217292
       0.260000      16.522971       0.808443       0.214554
       0.270000      18.244768       0.771931       0.212375
       0.280000      20.134366       0.733404       0.210882
       0.290000      22.192348       0.694367       0.210199
       0.300000      24.410244       0.655722       0.210386
       0.310000      26.766728       0.618041       0.211384
       0.320000      29.223482       0.581786       0.212967
       0.330000      31.721877       0.547440       0.214739
       0.340000      34.182347       0.515514       0.216151
       0.350000      36.508347       0.486484       0.216572
       0.360000      38.595720       0.460718       0.215398
       0.370000      40.346430       0.438421       0.212170
       0.380000      41.683963       0.419615       0.206683
       0.390000      42.566883       0.404139       0.199030
       0.400000      42.996909       0.391660       0.189572
       0.410000      43.018170       0.381692       0.178843
       0.420000      42.706121       0.373632       0.167433
       0.430000      42.148412       0.366810       0.155889
       0.440000      41.423968       0.360569       0.144647
       0.450000      40.587914       0.354347       0.134015
       0.460000      39.667484       0.347744       0.124178
       0.470000      38.669335       0.340533       0.115227
       0.480000      37.593834       0.332628       0.107183
       0.490000      36.449089       0.324017       0.100023
       0.500000      35.258170       0.314708       0.093701
       0.510000      34.056828       0.304716       0.088158
       0.520000      32.883978       0.294091       0.083335
       0.530000      31.770116       0.282950       0.079173
       0.540000      30.728766       0.271497       0.075617
       0.550000      29.753953       0.260003       0.072615
       0.560000      28.824256       0.248764       0.070113
       0.570000      27.911872       0.238052       0.068057
       0.580000      26.993312       0.228084       0.066383
       0.590000      26.057543       0.219003       0.065027
       0.600000      25.108257       0.210885       0.063921
       0.610000      24.159655       0.203748       0.063007
       0.620000      23.228154       0.197573       0.062242
       0.630000      22.323921       0.192312       0.061612
       0.640000      21.445621       0.187906       0.061127
       0.650000      20.580092       0.184284       0.060822
       0.660000      19.706815       0.181377       0.060743
       0.670000      18.805395       0.179116       0.060942
       0.680000      17.863169       0.177439       0.061459
       0.690000      16.879905       0.176288       0.062323
       0.700000      15.867949       0.175617       0.063546
       0.710000      14.848369       0.175391       0.065118
       0.720000      13.845309       0.175588       0.067010
       0.730000      12.880938       0.176193       0.069164
       0.740000      11.972365       0.177202       0.071496
       0.750000      11.130642       0.178614       0.073888
       0.760000      10.361245       0.180432       0.076193
       0.770000       9.665291       0.182663       0.078244
       0.780000       9.040892       0.185314       0.079875
       0.790000       8.484354       0.188396       0.080957
       0.800000       7.991085       0.191924       0.081422
       0.810000       7.556226       0.195916       0.081275
       0.820000       7.175046       0.200394       0.080583
       0.830000       6.843184       0.205388       0.079445
       0.840000       6.556764       0.210932       0.077962
       0.850000       6.312458       0.217066       0.076213
       0.860000       6.107491       0.223840       0.074257
       0.870000       5.939637       0.231310       0.072142
       0.880000       5.807183       0.239543       0.069914
       0.890000       5.708905       0.248614       0.067624
       0.900000       5.644020       0.258606       0.065323
       0.910000       5.612150       0.269615       0.063053
       0.920000       5.613268       0.281741       0.060838
       0.930000       5.647633       0.295091       0.058692
       0.940000       5.715689       0.309770       0.056623
       0.950000       5.817881       0.325873       0.054642
       0.960000       5.954383       0.343470       0.052775
       0.970000       6.124674       0.362583       0.051057
       0.980000       6.327025       0.383159       0.049529
       0.990000       6.557928       0.405039       0.048230
       1.000000       6.811659       0.427934       0.047194
       1.010000       7.080166       0.451409       0.046442
       1.020000       7.353524       0.474907       0.045986
       1.030000       7.621046       0.497807       0.045823
       1.040000       7.872873       0.519519       0.045943
       1.050000       8.101575       0.539590       0.046321
       1.060000       8.303165       0.557796       0.046924
       1.070000       8.477195       0.574171       0.047704
       1.080000       8.626060       0.588989       0.048606
       1.090000       8.753941       0.602708       0.049558
       1.100000       8.865838       0.615899       0.050480
       1.110000       8.966820       0.629191       0.051283
       1.120000       9.061446       0.643219       0.051884
       1.130000       9.153363       0.658581       0.052217
       1.140000       9.245197       0.675806       0.052253
       1.150000       9.338791       0.695337       0.052013
       1.160000       9.435545       0.717508       0.051562
       1.170000       9.536531       0.742519       0.051000
       1.180000       9.642294       0.770390       0.050441
       1.190000       9.752568       0.800896       0.049992
       1.200000       9.866200       0.833519       0.049746
       1.210000       9.981278       0.867430       0.049771
       1.220000      10.095186       0.901552       0.050110
       1.230000      10.204400       0.934710       0.050784
       1.240000      10.304108       0.965872       0.051785
       1.250000      10.387917       0.994409       0.053082
       1.260000      10.447742       1.020271       0.054613
       1.270000      10.473882       1.043971       0.056283
       1.280000      10.455287       1.066356       0.057967
       1.290000      10.380228       1.088246       0.059522
       1.300000      10.237577       1.110071       0.060800
       1.310000      10.018677       1.131634       0.061679
       1.320000       9.719499       1.152083       0.062085
       1.330000       9.342441       1.170114       0.062004
       1.340000       8.897018       1.184382       0.061480
       1.350000       8.398934       1.193987       0.060594
       1.360000       7.867670       1.198868       0.059440
       1.370000       7.323385       1.199949       0.058100
       1.380000       6.784140       1.198979       0.056637
       1.390000       6.264168       1.198164       0.055100
       1.400000       5.773328       1.199747       0.053528
       1.410000       5.317448       1.205689       0.051967
       1.420000       4.899116       1.217470       0.050468
       1.430000       4.518577       1.236025       0.049085
       1.440000       4.174516       1.261727       0.047868
       1.450000       3.864678       1.294415       0.046857
       1.460000       3.586324       1.333430       0.046076
       1.470000       3.336537       1.377697       0.045534
       1.480000       3.112429       1.425872       0.045224
       1.490000       2.911264       1.476598       0.045129
       1.500000       2.730524       1.528803       0.045224
       1.510000       2.567935       1.581962       0.045477
       1.520000       2.421479       1.636181       0.045852
       1.530000       2.289374       1.692023       0.046306
       1.540000       2.170066       1.750117       0.046787
       1.550000       2.062200       1.810696       0.047247
       1.560000       1.964605       1.873233       0.047642
       1.570000       1.876269       1.936342       0.047947
       1.580000       1.796322       1.998011       0.048166
       1.590000       1.724013       2.056150       0.048328
       1.600000       1.658701       2.109309       0.048482
       1.610000       1.599831       2.157315       0.048680
       1.620000       1.546920       2.201583       0.048964
       1.630000       1.499541       2.244970       0.049357
       1.640000       1.457300       2.291247       0.049854
       1.650000       1.419819       2.344391       0.050430
       1.660000       1.386714       2.407901       0.051045
       1.670000       1.357581       2.484276       0.051661
       1.680000       1.331993       2.574637       0.052256
       1.690000       1.309519       2.678490       0.052832
       1.700000       1.289767       2.793601       0.053418
       1.710000       1.272429       2.916031       0.054062
       1.720000       1.257339       3.040442       0.054813
       1.730000       1.244483       3.160768       0.055710
       1.740000       1.233977       3.271209       0.056767
       1.750000       1.226002       3.367349       0.057970
       1.760000       1.220737       3.447040       0.059276
       1.770000       1.218302       3.510750       0.060620
       1.780000       1.218736       3.561290       0.061927
       1.790000       1.221991       3.603079       0.063122
       1.800000       1.227950       3.641248       0.064137
       1.810000       1.236455       3.680872       0.064924
       1.820000       1.247333       3.726541       0.065456
       1.830000       1.260439       3.782306       0.065725
       1.840000       1.275672       3.851892       0.065736
       1.850000       1.292965       3.938942       0.065507
       1.860000       1.312266       4.047047       0.065059
       1.870000       1.333515       4.179487       0.064428
       1.880000       1.356655       4.338705       0.063663
       1.890000       1.381654       4.525623       0.062826
       1.900000       1.408523       4.738872       0.061985
       1.910000       1.437281       4.974014       0.061200
       1.920000       1.467906       5.222880       0.060509
       1.930000       1.500292       5.473228       0.059924
       1.940000       1.534256       5.709029       0.059434
       1.950000       1.569566       5.911688       0.059008
       1.960000       1.605954       6.062312       0.058608
       1.970000       1.643107       6.144831       0.058196
       1.980000       1.680622       6.149242       0.057738
       1.990000       1.717980       6.073940       0.057204
       2.000000       1.754515       5.926170       0.056567
       2.010000       1.789387       5.720319       0.055806
       2.020000       1.821520       5.474693       0.054912
       2.030000       1.849565       5.207965       0.053896
       2.040000       1.871879       4.936407       0.052789
       2.050000       1.886565       4.672418       0.051642
       2.060000       1.891569       4.424233       0.050522
       2.070000       1.884849       4.196378       0.049494
       2.080000       1.864636       3.990410       0.048620
       2.090000       1.829775       3.805642       0.047952
       2.100000       1.780074       3.639802       0.047528
       2.110000       1.716536       3.489658       0.047378
       2.120000       1.641369       3.351671       0.047519
       2.130000       1.557707       3.222617       0.047964
       2.140000       1.469134       3.100081       0.048721
       2.150000       1.379143       2.982696       0.049791
       2.160000       1.290713       2.870111       0.051166
       2.170000       1.206070       2.762763       0.052832
       2.180000       1.126656       2.661560       0.054760
       2.190000       1.053219       2.567584       0.056903
       2.200000       0.985983       2.481872       0.059194
       2.210000       0.924823       2.405268       0.061539
       2.220000       0.869418       2.338336       0.063825
       2.230000       0.819357       2.281293       0.065917
       2.240000       0.774210       2.233962       0.067681
       2.250000       0.733555       2.195771       0.068997
       2.260000       0.696988       2.165839       0.069788
       2.270000       0.664129       2.143163       0.070038
       2.280000       0.634618       2.126857       0.069793
       2.290000       0.608115       2.116341       0.069160
       2.300000       0.584297       2.111359       0.068283
       2.310000       0.562855       2.111831       0.067320
       2.320000       0.543499       2.117602       0.066422
       2.330000       0.525952       2.128240       0.065718
       2.340000       0.509972       2.143019       0.065308
       2.350000       0.495353       2.161111       0.065262
       2.360000       0.481946       2.181936       0.065621
       2.370000       0.469654       2.205531       0.066404
       2.380000       0.458425       2.232783       0.067607
       2.390000       0.448231       2.265436       0.069203
       2.400000       0.439045       2.305852       0.071146
       2.410000       0.430815       2.356616       0.073370
       2.420000       0.423455       2.420083       0.075789
       2.430000       0.416834       2.497960       0.078302
       2.440000       0.410787       2.590955       0.080800
       2.450000       0.405137       2.698526       0.083176
       2.460000       0.399717       2.818709       0.085334
       2.470000       0.394406       2.948080       0.087193
       2.480000       0.389146       3.081859       0.088694
       2.490000       0.383941       3.214162       0.089797
       2.500000       0.378838       3.338376       0.090482
       2.510000       0.373897       3.447571       0.090747
       2.520000       0.369162       3.534919       0.090618
       2.530000       0.364640       3.594103       0.090149
       2.540000       0.360300       3.619801       0.089421
       2.550000       0.356083       3.608282       0.088543
       2.560000       0.351931       3.558059       0.087636
       2.570000       0.347813       3.470417       0.086818
       2.580000       0.343748       3.349510       0.086186
       2.590000       0.339808       3.201880       0.085811
       2.600000       0.336107       3.035471       0.085732
       2.610000       0.332775       2.858469       0.085966
       2.620000       0.329937       2.678339       0.086516
       2.630000       0.327701       2.501258       0.087385
       2.640000       0.326154       2.331912       0.088576
       2.650000       0.325360       2.173555       0.090092
       2.660000       0.325359       2.028190       0.091930
       2.670000       0.326162       1.896795       0.094067
       2.680000       0.327745       1.779567       0.096452
       2.690000       0.330038       1.676129       0.099007
       2.700000       0.332928       1.585729       0.101629
       2.710000       0.336268       1.507386       0.104201
       2.720000       0.339909       1.440010       0.106615
       2.730000       0.343735       1.382484       0.108779
       2.740000       0.347704       1.333708       0.110638
       2.750000       0.351868       1.292603       0.112169
       2.760000       0.356363       1.258078       0.113388
       2.770000       0.361372       1.228989       0.114334
       2.780000       0.367068       1.204109       0.115066
       2.790000       0.373572       1.182175       0.115641
       2.800000       0.380914       1.162002       0.116113
       2.810000       0.389031       1.142648       0.116520
       2.820000       0.397779       1.123564       0.116884
       2.830000       0.406967       1.104656       0.117217
       2.840000       0.416398       1.086232       0.117533
       2.850000       0.425902       1.068841       0.117850
       2.860000       0.435345       1.053079       0.118200
       2.870000       0.444610       1.039411       0.118622
       2.880000       0.453556       1.028052       0.119142
       2.890000       0.461978       1.018938       0.119770
       2.900000       0.469581       1.011774       0.120489
       2.910000       0.475980       1.006143       0.121259
       2.920000       0.480725       1.001621       0.122037
       2.930000       0.483331       0.997857       0.122793
       2.940000       0.483338       0.994580       0.123524
       2.950000       0.480374       0.991559       0.124265
       2.960000       0.474241       0.988564       0.125078
       2.970000       0.464985       0.985378       0.126045
       2.980000       0.452922       0.981884       0.127243
       2.990000       0.438613       0.978186       0.128734
       3.000000       0.422781       0.974689       0.130554
       3.010000       0.406203       0.972088       0.132705
       3.020000       0.389603       0.971276       0.135157
       3.030000       0.373580       0.973195       0.137844
       3.040000       0.358567       0.978707       0.140676
       3.050000       0.344824       0.988493       0.143545
       3.060000       0.332452       1.003006       0.146341
       3.070000       0.321419       1.022465       0.148956
       3.080000       0.311603       1.046865       0.151286
       3.090000       0.302827       1.076007       0.153228
       3.100000       0.294893       1.109543       0.154694
       3.110000       0.287616       1.147021       0.155612
       3.120000       0.280839       1.187937       0.155950
       3.130000       0.274440       1.231775       0.155722
       3.140000       0.268338       1.278045       0.154995
       3.150000       0.262492       1.326313       0.153879
       3.160000       0.256901       1.376237       0.152518
       3.170000       0.251598       1.427570       0.151060
       3.180000       0.246630       1.480134       0.149637
       3.190000       0.242048       1.533764       0.148336
       3.200000       0.237881       1.588230       0.147187
       3.210000       0.234129       1.643179       0.146157
       3.220000       0.230760       1.698088       0.145169
       3.230000       0.227718       1.752230       0.144132
       3.240000       0.224938       1.804667       0.142971
       3.250000       0.222360       1.854272       0.141656
       3.260000       0.219939       1.899785       0.140220
